'Elapsed time','ECG I'
'hh:mm:ss.mmm','mV'
'0:00.000',-1.445
'0:00.002',-1.505
'0:00.004',-1.460
'0:00.006',-1.510
'0:00.008',-1.725
'0:00.010',-1.640
'0:00.012',-1.635
'0:00.014',-1.460
'0:00.016',-1.470
'0:00.018',-1.325
'0:00.020',-1.395
'0:00.022',-1.385
'0:00.024',-1.500
'0:00.026',-1.550
'0:00.028',-1.630
'0:00.030',-1.660
'0:00.032',-1.615
'0:00.034',-1.580
'0:00.036',-1.485
'0:00.038',-1.350
'0:00.040',-1.345
'0:00.042',-1.365
'0:00.044',-1.455
'0:00.046',-1.540
'0:00.048',-1.655
'0:00.050',-1.665
'0:00.052',-1.590
'0:00.054',-1.560
'0:00.056',-1.560
'0:00.058',-1.400
'0:00.060',-1.255
'0:00.062',-1.420
'0:00.064',-1.540
'0:00.066',-1.490
'0:00.068',-1.660
'0:00.070',-1.610
'0:00.072',-1.610
'0:00.074',-1.475
'0:00.076',-1.430
'0:00.078',-1.420
'0:00.080',-1.340
'0:00.082',-1.460
'0:00.084',-1.505
'0:00.086',-1.525
'0:00.088',-1.650
'0:00.090',-1.650
'0:00.092',-1.670
'0:00.094',-1.530
'0:00.096',-1.560
'0:00.098',-1.380
'0:00.100',-1.300
'0:00.102',-1.475
'0:00.104',-1.525
'0:00.106',-1.550
'0:00.108',-1.585
'0:00.110',-1.665
'0:00.112',-1.550
'0:00.114',-1.520
'0:00.116',-1.425
'0:00.118',-1.360
'0:00.120',-1.410
'0:00.122',-1.430
'0:00.124',-1.540
'0:00.126',-1.690
'0:00.128',-1.625
'0:00.130',-1.610
'0:00.132',-1.530
'0:00.134',-1.590
'0:00.136',-1.435
'0:00.138',-1.400
'0:00.140',-1.365
'0:00.142',-1.410
'0:00.144',-1.515
'0:00.146',-1.640
'0:00.148',-1.835
'0:00.150',-1.745
'0:00.152',-1.665
'0:00.154',-1.525
'0:00.156',-1.485
'0:00.158',-1.460
'0:00.160',-1.565
'0:00.162',-1.520
'0:00.164',-1.585
'0:00.166',-1.670
'0:00.168',-1.720
'0:00.170',-1.710
'0:00.172',-1.670
'0:00.174',-1.565
'0:00.176',-1.540
'0:00.178',-1.475
'0:00.180',-1.475
'0:00.182',-1.550
'0:00.184',-1.655
'0:00.186',-1.660
'0:00.188',-1.715
'0:00.190',-1.685
'0:00.192',-1.775
'0:00.194',-1.595
'0:00.196',-1.555
'0:00.198',-1.470
'0:00.200',-1.505
'0:00.202',-1.600
'0:00.204',-1.670
'0:00.206',-1.670
'0:00.208',-1.670
'0:00.210',-1.625
'0:00.212',-1.610
'0:00.214',-1.365
'0:00.216',-1.350
'0:00.218',-1.285
'0:00.220',-1.375
'0:00.222',-1.470
'0:00.224',-1.595
'0:00.226',-1.555
'0:00.228',-1.690
'0:00.230',-1.710
'0:00.232',-1.740
'0:00.234',-1.445
'0:00.236',-1.450
'0:00.238',-1.520
'0:00.240',-1.530
'0:00.242',-1.560
'0:00.244',-1.620
'0:00.246',-1.795
'0:00.248',-1.805
'0:00.250',-1.715
'0:00.252',-1.670
'0:00.254',-1.615
'0:00.256',-1.525
'0:00.258',-1.460
'0:00.260',-1.615
'0:00.262',-1.615
'0:00.264',-1.705
'0:00.266',-1.795
'0:00.268',-1.735
'0:00.270',-1.665
'0:00.272',-1.640
'0:00.274',-1.665
'0:00.276',-1.545
'0:00.278',-1.585
'0:00.280',-1.485
'0:00.282',-1.610
'0:00.284',-1.640
'0:00.286',-1.795
'0:00.288',-1.885
'0:00.290',-1.855
'0:00.292',-1.760
'0:00.294',-1.805
'0:00.296',-1.690
'0:00.298',-1.650
'0:00.300',-1.655
'0:00.302',-1.760
'0:00.304',-1.750
'0:00.306',-1.925
'0:00.308',-1.865
'0:00.310',-1.760
'0:00.312',-1.580
'0:00.314',-1.465
'0:00.316',-1.165
'0:00.318',-1.080
'0:00.320',-1.035
'0:00.322',-0.915
'0:00.324',-0.905
'0:00.326',-0.870
'0:00.328',-0.875
'0:00.330',-0.845
'0:00.332',-0.765
'0:00.334',-0.700
'0:00.336',-0.620
'0:00.338',-0.710
'0:00.340',-0.890
'0:00.342',-1.105
'0:00.344',-1.480
'0:00.346',-1.610
'0:00.348',-1.625
'0:00.350',-1.610
'0:00.352',-1.555
'0:00.354',-1.435
'0:00.356',-1.415
'0:00.358',-1.440
'0:00.360',-1.590
'0:00.362',-1.675
'0:00.364',-1.680
'0:00.366',-1.820
'0:00.368',-1.820
'0:00.370',-1.740
'0:00.372',-1.685
'0:00.374',-1.650
'0:00.376',-1.600
'0:00.378',-1.560
'0:00.380',-1.595
'0:00.382',-1.670
'0:00.384',-1.730
'0:00.386',-1.960
'0:00.388',-1.900
'0:00.390',-1.740
'0:00.392',-1.825
'0:00.394',-1.705
'0:00.396',-1.535
'0:00.398',-1.575
'0:00.400',-1.595
'0:00.402',-1.760
'0:00.404',-1.825
'0:00.406',-1.895
'0:00.408',-1.805
'0:00.410',-1.770
'0:00.412',-1.675
'0:00.414',-1.775
'0:00.416',-1.560
'0:00.418',-1.530
'0:00.420',-1.545
'0:00.422',-1.760
'0:00.424',-1.780
'0:00.426',-1.845
'0:00.428',-1.880
'0:00.430',-1.940
'0:00.432',-1.645
'0:00.434',-1.625
'0:00.436',-1.585
'0:00.438',-1.575
'0:00.440',-1.640
'0:00.442',-1.810
'0:00.444',-1.765
'0:00.446',-1.890
'0:00.448',-1.840
'0:00.450',-1.770
'0:00.452',-1.670
'0:00.454',-1.620
'0:00.456',-1.545
'0:00.458',-1.635
'0:00.460',-1.645
'0:00.462',-1.825
'0:00.464',-1.895
'0:00.466',-1.885
'0:00.468',-1.860
'0:00.470',-1.835
'0:00.472',-1.785
'0:00.474',-1.680
'0:00.476',-1.595
'0:00.478',-1.685
'0:00.480',-1.765
'0:00.482',-1.805
'0:00.484',-1.675
'0:00.486',-1.810
'0:00.488',-1.850
'0:00.490',-1.700
'0:00.492',-1.645
'0:00.494',-1.510
'0:00.496',-1.420
'0:00.498',-1.455
'0:00.500',-1.555
'0:00.502',-1.555
'0:00.504',-1.540
'0:00.506',-1.745
'0:00.508',-1.730
'0:00.510',-1.675
'0:00.512',-1.490
'0:00.514',-1.410
'0:00.516',-1.435
'0:00.518',-1.430
'0:00.520',-1.425
'0:00.522',-1.545
'0:00.524',-1.610
'0:00.526',-1.540
'0:00.528',-1.525
'0:00.530',-1.495
'0:00.532',-1.320
'0:00.534',-1.415
'0:00.536',-1.395
'0:00.538',-1.240
'0:00.540',-1.360
'0:00.542',-1.340
'0:00.544',-1.475
'0:00.546',-1.475
'0:00.548',-1.500
'0:00.550',-1.480
'0:00.552',-1.365
'0:00.554',-1.250
'0:00.556',-1.265
'0:00.558',-1.250
'0:00.560',-1.285
'0:00.562',-1.475
'0:00.564',-1.595
'0:00.566',-1.515
'0:00.568',-1.385
'0:00.570',-1.350
'0:00.572',-1.340
'0:00.574',-1.125
'0:00.576',-1.245
'0:00.578',-1.270
'0:00.580',-1.205
'0:00.582',-1.395
'0:00.584',-1.465
'0:00.586',-1.585
'0:00.588',-1.540
'0:00.590',-1.460
'0:00.592',-1.400
'0:00.594',-1.240
'0:00.596',-1.365
'0:00.598',-1.410
'0:00.600',-1.420
'0:00.602',-1.530
'0:00.604',-1.630
'0:00.606',-1.645
'0:00.608',-1.595
'0:00.610',-1.500
'0:00.612',-1.460
'0:00.614',-1.290
'0:00.616',-1.345
'0:00.618',-1.500
'0:00.620',-1.545
'0:00.622',-1.610
'0:00.624',-1.645
'0:00.626',-1.780
'0:00.628',-1.590
'0:00.630',-1.470
'0:00.632',-1.470
'0:00.634',-1.415
'0:00.636',-1.505
'0:00.638',-1.580
'0:00.640',-1.430
'0:00.642',-1.595
'0:00.644',-1.720
'0:00.646',-1.715
'0:00.648',-1.635
'0:00.650',-1.545
'0:00.652',-1.460
'0:00.654',-1.405
'0:00.656',-1.440
'0:00.658',-1.490
'0:00.660',-1.535
'0:00.662',-1.555
'0:00.664',-1.680
'0:00.666',-1.680
'0:00.668',-1.580
'0:00.670',-1.575
'0:00.672',-1.505
'0:00.674',-1.390
'0:00.676',-1.430
'0:00.678',-1.540
'0:00.680',-1.540
'0:00.682',-1.575
'0:00.684',-1.715
'0:00.686',-1.615
'0:00.688',-1.620
'0:00.690',-1.535
'0:00.692',-1.520
'0:00.694',-1.320
'0:00.696',-1.385
'0:00.698',-1.365
'0:00.700',-1.530
'0:00.702',-1.605
'0:00.704',-1.745
'0:00.706',-1.690
'0:00.708',-1.585
'0:00.710',-1.540
'0:00.712',-1.470
'0:00.714',-1.415
'0:00.716',-1.255
'0:00.718',-1.425
'0:00.720',-1.555
'0:00.722',-1.600
'0:00.724',-1.620
'0:00.726',-1.765
'0:00.728',-1.640
'0:00.730',-1.500
'0:00.732',-1.395
'0:00.734',-1.445
'0:00.736',-1.500
'0:00.738',-1.425
'0:00.740',-1.560
'0:00.742',-1.590
'0:00.744',-1.710
'0:00.746',-1.655
'0:00.748',-1.630
'0:00.750',-1.550
'0:00.752',-1.500
'0:00.754',-1.285
'0:00.756',-1.350
'0:00.758',-1.415
'0:00.760',-1.550
'0:00.762',-1.650
'0:00.764',-1.645
'0:00.766',-1.595
'0:00.768',-1.550
'0:00.770',-1.500
'0:00.772',-1.485
'0:00.774',-1.340
'0:00.776',-1.385
'0:00.778',-1.435
'0:00.780',-1.465
'0:00.782',-1.670
'0:00.784',-1.710
'0:00.786',-1.625
'0:00.788',-1.645
'0:00.790',-1.575
'0:00.792',-1.515
'0:00.794',-1.350
'0:00.796',-1.390
'0:00.798',-1.485
'0:00.800',-1.520
'0:00.802',-1.630
'0:00.804',-1.775
'0:00.806',-1.640
'0:00.808',-1.520
'0:00.810',-1.560
'0:00.812',-1.475
'0:00.814',-1.330
'0:00.816',-1.445
'0:00.818',-1.525
'0:00.820',-1.495
'0:00.822',-1.635
'0:00.824',-1.745
'0:00.826',-1.605
'0:00.828',-1.540
'0:00.830',-1.485
'0:00.832',-1.520
'0:00.834',-1.405
'0:00.836',-1.505
'0:00.838',-1.505
'0:00.840',-1.595
'0:00.842',-1.545
'0:00.844',-1.555
'0:00.846',-1.550
'0:00.848',-1.550
'0:00.850',-1.540
'0:00.852',-1.360
'0:00.854',-1.335
'0:00.856',-1.430
'0:00.858',-1.525
'0:00.860',-1.655
'0:00.862',-1.645
'0:00.864',-1.580
'0:00.866',-1.655
'0:00.868',-1.555
'0:00.870',-1.465
'0:00.872',-1.330
'0:00.874',-1.415
'0:00.876',-1.515
'0:00.878',-1.590
'0:00.880',-1.570
'0:00.882',-1.695
'0:00.884',-1.670
'0:00.886',-1.630
'0:00.888',-1.410
'0:00.890',-1.445
'0:00.892',-1.385
'0:00.894',-1.395
'0:00.896',-1.520
'0:00.898',-1.535
'0:00.900',-1.550
'0:00.902',-1.710
'0:00.904',-1.690
'0:00.906',-1.750
'0:00.908',-1.465
'0:00.910',-1.415
'0:00.912',-1.275
'0:00.914',-1.315
'0:00.916',-1.280
'0:00.918',-1.355
'0:00.920',-1.395
'0:00.922',-1.575
'0:00.924',-1.485
'0:00.926',-1.480
'0:00.928',-1.450
'0:00.930',-1.385
'0:00.932',-1.235
'0:00.934',-1.320
'0:00.936',-1.330
'0:00.938',-1.445
'0:00.940',-1.440
'0:00.942',-1.645
'0:00.944',-1.635
'0:00.946',-1.555
'0:00.948',-1.625
'0:00.950',-1.440
'0:00.952',-1.370
'0:00.954',-1.365
'0:00.956',-1.415
'0:00.958',-1.520
'0:00.960',-1.585
'0:00.962',-1.645
'0:00.964',-1.645
'0:00.966',-1.615
'0:00.968',-1.555
'0:00.970',-1.645
'0:00.972',-1.420
'0:00.974',-1.330
'0:00.976',-1.420
'0:00.978',-1.510
'0:00.980',-1.540
'0:00.982',-1.615
'0:00.984',-1.680
'0:00.986',-1.660
'0:00.988',-1.620
'0:00.990',-1.555
'0:00.992',-1.405
'0:00.994',-1.385
'0:00.996',-1.455
'0:00.998',-1.670
'0:01.000',-1.615
'0:01.002',-1.830
'0:01.004',-1.810
'0:01.006',-1.685
'0:01.008',-1.610
'0:01.010',-1.470
'0:01.012',-1.465
'0:01.014',-1.420
'0:01.016',-1.530
'0:01.018',-1.400
'0:01.020',-1.365
'0:01.022',-1.400
'0:01.024',-1.250
'0:01.026',-1.090
'0:01.028',-0.885
'0:01.030',-0.725
'0:01.032',-0.620
'0:01.034',-0.565
'0:01.036',-0.455
'0:01.038',-0.720
'0:01.040',-0.705
'0:01.042',-0.675
'0:01.044',-0.655
'0:01.046',-0.740
'0:01.048',-0.740
'0:01.050',-1.035
'0:01.052',-1.175
'0:01.054',-1.170
'0:01.056',-1.310
'0:01.058',-1.395
'0:01.060',-1.440
'0:01.062',-1.555
'0:01.064',-1.495
'0:01.066',-1.550
'0:01.068',-1.450
'0:01.070',-1.430
'0:01.072',-1.385
'0:01.074',-1.465
'0:01.076',-1.510
'0:01.078',-1.610
'0:01.080',-1.645
'0:01.082',-1.770
'0:01.084',-1.580
'0:01.086',-1.550
'0:01.088',-1.535
'0:01.090',-1.295
'0:01.092',-1.490
'0:01.094',-1.390
'0:01.096',-1.520
'0:01.098',-1.660
'0:01.100',-1.680
'0:01.102',-1.695
'0:01.104',-1.590
'0:01.106',-1.750
'0:01.108',-1.610
'0:01.110',-1.425
'0:01.112',-1.570
'0:01.114',-1.410
'0:01.116',-1.450
'0:01.118',-1.690
'0:01.120',-1.680
'0:01.122',-1.640
'0:01.124',-1.580
'0:01.126',-1.445
'0:01.128',-1.495
'0:01.130',-1.530
'0:01.132',-1.495
'0:01.134',-1.475
'0:01.136',-1.525
'0:01.138',-1.595
'0:01.140',-1.650
'0:01.142',-1.615
'0:01.144',-1.630
'0:01.146',-1.545
'0:01.148',-1.460
'0:01.150',-1.485
'0:01.152',-1.385
'0:01.154',-1.415
'0:01.156',-1.480
'0:01.158',-1.530
'0:01.160',-1.750
'0:01.162',-1.680
'0:01.164',-1.690
'0:01.166',-1.515
'0:01.168',-1.455
'0:01.170',-1.395
'0:01.172',-1.305
'0:01.174',-1.460
'0:01.176',-1.520
'0:01.178',-1.555
'0:01.180',-1.580
'0:01.182',-1.655
'0:01.184',-1.590
'0:01.186',-1.515
'0:01.188',-1.490
'0:01.190',-1.385
'0:01.192',-1.365
'0:01.194',-1.390
'0:01.196',-1.440
'0:01.198',-1.485
'0:01.200',-1.610
'0:01.202',-1.555
'0:01.204',-1.570
'0:01.206',-1.480
'0:01.208',-1.400
'0:01.210',-1.345
'0:01.212',-1.220
'0:01.214',-1.405
'0:01.216',-1.440
'0:01.218',-1.375
'0:01.220',-1.540
'0:01.222',-1.475
'0:01.224',-1.465
'0:01.226',-1.350
'0:01.228',-1.405
'0:01.230',-1.255
'0:01.232',-1.160
'0:01.234',-1.265
'0:01.236',-1.350
'0:01.238',-1.470
'0:01.240',-1.505
'0:01.242',-1.405
'0:01.244',-1.380
'0:01.246',-1.300
'0:01.248',-1.320
'0:01.250',-1.050
'0:01.252',-1.180
'0:01.254',-1.240
'0:01.256',-1.295
'0:01.258',-1.280
'0:01.260',-1.435
'0:01.262',-1.500
'0:01.264',-1.375
'0:01.266',-1.245
'0:01.268',-1.235
'0:01.270',-1.045
'0:01.272',-1.175
'0:01.274',-1.130
'0:01.276',-1.255
'0:01.278',-1.300
'0:01.280',-1.490
'0:01.282',-1.390
'0:01.284',-1.325
'0:01.286',-1.260
'0:01.288',-1.220
'0:01.290',-1.170
'0:01.292',-1.170
'0:01.294',-1.240
'0:01.296',-1.320
'0:01.298',-1.410
'0:01.300',-1.580
'0:01.302',-1.530
'0:01.304',-1.445
'0:01.306',-1.360
'0:01.308',-1.255
'0:01.310',-1.165
'0:01.312',-1.190
'0:01.314',-1.335
'0:01.316',-1.440
'0:01.318',-1.565
'0:01.320',-1.505
'0:01.322',-1.525
'0:01.324',-1.615
'0:01.326',-1.485
'0:01.328',-1.435
'0:01.330',-1.375
'0:01.332',-1.385
'0:01.334',-1.410
'0:01.336',-1.480
'0:01.338',-1.590
'0:01.340',-1.660
'0:01.342',-1.705
'0:01.344',-1.535
'0:01.346',-1.510
'0:01.348',-1.305
'0:01.350',-1.275
'0:01.352',-1.410
'0:01.354',-1.495
'0:01.356',-1.630
'0:01.358',-1.590
'0:01.360',-1.625
'0:01.362',-1.690
'0:01.364',-1.580
'0:01.366',-1.440
'0:01.368',-1.515
'0:01.370',-1.395
'0:01.372',-1.340
'0:01.374',-1.425
'0:01.376',-1.585
'0:01.378',-1.780
'0:01.380',-1.605
'0:01.382',-1.590
'0:01.384',-1.665
'0:01.386',-1.465
'0:01.388',-1.430
'0:01.390',-1.335
'0:01.392',-1.410
'0:01.394',-1.500
'0:01.396',-1.525
'0:01.398',-1.645
'0:01.400',-1.620
'0:01.402',-1.575
'0:01.404',-1.560
'0:01.406',-1.545
'0:01.408',-1.470
'0:01.410',-1.420
'0:01.412',-1.365
'0:01.414',-1.550
'0:01.416',-1.530
'0:01.418',-1.630
'0:01.420',-1.685
'0:01.422',-1.595
'0:01.424',-1.480
'0:01.426',-1.465
'0:01.428',-1.345
'0:01.430',-1.410
'0:01.432',-1.530
'0:01.434',-1.520
'0:01.436',-1.525
'0:01.438',-1.625
'0:01.440',-1.645
'0:01.442',-1.695
'0:01.444',-1.645
'0:01.446',-1.535
'0:01.448',-1.435
'0:01.450',-1.415
'0:01.452',-1.415
'0:01.454',-1.400
'0:01.456',-1.435
'0:01.458',-1.700
'0:01.460',-1.730
'0:01.462',-1.540
'0:01.464',-1.560
'0:01.466',-1.470
'0:01.468',-1.450
'0:01.470',-1.450
'0:01.472',-1.460
'0:01.474',-1.530
'0:01.476',-1.595
'0:01.478',-1.675
'0:01.480',-1.735
'0:01.482',-1.585
'0:01.484',-1.705
'0:01.486',-1.420
'0:01.488',-1.290
'0:01.490',-1.335
'0:01.492',-1.330
'0:01.494',-1.420
'0:01.496',-1.515
'0:01.498',-1.720
'0:01.500',-1.760
'0:01.502',-1.680
'0:01.504',-1.585
'0:01.506',-1.550
'0:01.508',-1.435
'0:01.510',-1.390
'0:01.512',-1.455
'0:01.514',-1.475
'0:01.516',-1.615
'0:01.518',-1.600
'0:01.520',-1.615
'0:01.522',-1.700
'0:01.524',-1.515
'0:01.526',-1.465
'0:01.528',-1.380
'0:01.530',-1.430
'0:01.532',-1.585
'0:01.534',-1.610
'0:01.536',-1.700
'0:01.538',-1.620
'0:01.540',-1.645
'0:01.542',-1.600
'0:01.544',-1.560
'0:01.546',-1.490
'0:01.548',-1.335
'0:01.550',-1.335
'0:01.552',-1.465
'0:01.554',-1.460
'0:01.556',-1.620
'0:01.558',-1.720
'0:01.560',-1.635
'0:01.562',-1.565
'0:01.564',-1.485
'0:01.566',-1.470
'0:01.568',-1.400
'0:01.570',-1.425
'0:01.572',-1.385
'0:01.574',-1.740
'0:01.576',-1.510
'0:01.578',-1.610
'0:01.580',-1.615
'0:01.582',-1.550
'0:01.584',-1.540
'0:01.586',-1.415
'0:01.588',-1.340
'0:01.590',-1.395
'0:01.592',-1.420
'0:01.594',-1.590
'0:01.596',-1.585
'0:01.598',-1.685
'0:01.600',-1.655
'0:01.602',-1.470
'0:01.604',-1.405
'0:01.606',-1.405
'0:01.608',-1.310
'0:01.610',-1.340
'0:01.612',-1.375
'0:01.614',-1.435
'0:01.616',-1.450
'0:01.618',-1.445
'0:01.620',-1.570
'0:01.622',-1.450
'0:01.624',-1.465
'0:01.626',-1.490
'0:01.628',-1.310
'0:01.630',-1.355
'0:01.632',-1.410
'0:01.634',-1.500
'0:01.636',-1.530
'0:01.638',-1.665
'0:01.640',-1.680
'0:01.642',-1.550
'0:01.644',-1.440
'0:01.646',-1.545
'0:01.648',-1.420
'0:01.650',-1.355
'0:01.652',-1.405
'0:01.654',-1.555
'0:01.656',-1.610
'0:01.658',-1.675
'0:01.660',-1.710
'0:01.662',-1.625
'0:01.664',-1.530
'0:01.666',-1.465
'0:01.668',-1.355
'0:01.670',-1.325
'0:01.672',-1.555
'0:01.674',-1.535
'0:01.676',-1.825
'0:01.678',-1.580
'0:01.680',-1.615
'0:01.682',-1.570
'0:01.684',-1.490
'0:01.686',-1.465
'0:01.688',-1.530
'0:01.690',-1.465
'0:01.692',-1.445
'0:01.694',-1.700
'0:01.696',-1.775
'0:01.698',-1.820
'0:01.700',-1.820
'0:01.702',-1.585
'0:01.704',-1.520
'0:01.706',-1.420
'0:01.708',-1.365
'0:01.710',-1.265
'0:01.712',-1.055
'0:01.714',-1.030
'0:01.716',-1.120
'0:01.718',-1.015
'0:01.720',-0.870
'0:01.722',-0.800
'0:01.724',-0.640
'0:01.726',-0.645
'0:01.728',-0.560
'0:01.730',-0.535
'0:01.732',-0.630
'0:01.734',-0.835
'0:01.736',-0.990
'0:01.738',-1.295
'0:01.740',-1.530
'0:01.742',-1.475
'0:01.744',-1.380
'0:01.746',-1.350
'0:01.748',-1.325
'0:01.750',-1.330
'0:01.752',-1.410
'0:01.754',-1.495
'0:01.756',-1.615
'0:01.758',-1.640
'0:01.760',-1.685
'0:01.762',-1.450
'0:01.764',-1.455
'0:01.766',-1.420
'0:01.768',-1.305
'0:01.770',-1.510
'0:01.772',-1.490
'0:01.774',-1.645
'0:01.776',-1.660
'0:01.778',-1.595
'0:01.780',-1.740
'0:01.782',-1.590
'0:01.784',-1.535
'0:01.786',-1.410
'0:01.788',-1.460
'0:01.790',-1.560
'0:01.792',-1.670
'0:01.794',-1.700
'0:01.796',-1.640
'0:01.798',-1.630
'0:01.800',-1.640
'0:01.802',-1.630
'0:01.804',-1.495
'0:01.806',-1.415
'0:01.808',-1.445
'0:01.810',-1.285
'0:01.812',-1.505
'0:01.814',-1.565
'0:01.816',-1.620
'0:01.818',-1.665
'0:01.820',-1.620
'0:01.822',-1.575
'0:01.824',-1.440
'0:01.826',-1.375
'0:01.828',-1.415
'0:01.830',-1.495
'0:01.832',-1.550
'0:01.834',-1.605
'0:01.836',-1.700
'0:01.838',-1.645
'0:01.840',-1.655
'0:01.842',-1.535
'0:01.844',-1.500
'0:01.846',-1.320
'0:01.848',-1.330
'0:01.850',-1.500
'0:01.852',-1.510
'0:01.854',-1.540
'0:01.856',-1.595
'0:01.858',-1.665
'0:01.860',-1.560
'0:01.862',-1.555
'0:01.864',-1.455
'0:01.866',-1.330
'0:01.868',-1.255
'0:01.870',-1.430
'0:01.872',-1.525
'0:01.874',-1.575
'0:01.876',-1.610
'0:01.878',-1.620
'0:01.880',-1.480
'0:01.882',-1.545
'0:01.884',-1.465
'0:01.886',-1.365
'0:01.888',-1.365
'0:01.890',-1.420
'0:01.892',-1.395
'0:01.894',-1.385
'0:01.896',-1.585
'0:01.898',-1.530
'0:01.900',-1.485
'0:01.902',-1.340
'0:01.904',-1.395
'0:01.906',-1.330
'0:01.908',-1.345
'0:01.910',-1.215
'0:01.912',-1.310
'0:01.914',-1.435
'0:01.916',-1.470
'0:01.918',-1.380
'0:01.920',-1.385
'0:01.922',-1.340
'0:01.924',-1.240
'0:01.926',-1.085
'0:01.928',-1.280
'0:01.930',-1.335
'0:01.932',-1.345
'0:01.934',-1.500
'0:01.936',-1.495
'0:01.938',-1.390
'0:01.940',-1.385
'0:01.942',-1.260
'0:01.944',-1.180
'0:01.946',-0.980
'0:01.948',-1.155
'0:01.950',-1.245
'0:01.952',-1.325
'0:01.954',-1.390
'0:01.956',-1.340
'0:01.958',-1.365
'0:01.960',-1.290
'0:01.962',-1.185
'0:01.964',-1.165
'0:01.966',-1.135
'0:01.968',-1.095
'0:01.970',-1.155
'0:01.972',-1.305
'0:01.974',-1.480
'0:01.976',-1.410
'0:01.978',-1.465
'0:01.980',-1.370
'0:01.982',-1.330
'0:01.984',-1.270
'0:01.986',-1.045
'0:01.988',-1.180
'0:01.990',-1.190
'0:01.992',-1.265
'0:01.994',-1.545
'0:01.996',-1.435
'0:01.998',-1.510
'0:02.000',-1.530
'0:02.002',-1.385
'0:02.004',-1.260
'0:02.006',-1.275
'0:02.008',-1.395
'0:02.010',-1.500
'0:02.012',-1.500
'0:02.014',-1.725
'0:02.016',-1.600
'0:02.018',-1.715
'0:02.020',-1.500
'0:02.022',-1.485
'0:02.024',-1.370
'0:02.026',-1.300
'0:02.028',-1.325
'0:02.030',-1.510
'0:02.032',-1.585
'0:02.034',-1.695
'0:02.036',-1.730
'0:02.038',-1.720
'0:02.040',-1.600
'0:02.042',-1.445
'0:02.044',-1.410
'0:02.046',-1.415
'0:02.048',-1.440
'0:02.050',-1.435
'0:02.052',-1.540
'0:02.054',-1.690
'0:02.056',-1.710
'0:02.058',-1.645
'0:02.060',-1.575
'0:02.062',-1.430
'0:02.064',-1.320
'0:02.066',-1.385
'0:02.068',-1.470
'0:02.070',-1.640
'0:02.072',-1.670
'0:02.074',-1.710
'0:02.076',-1.695
'0:02.078',-1.665
'0:02.080',-1.520
'0:02.082',-1.460
'0:02.084',-1.375
'0:02.086',-1.355
'0:02.088',-1.435
'0:02.090',-1.470
'0:02.092',-1.480
'0:02.094',-1.680
'0:02.096',-1.645
'0:02.098',-1.645
'0:02.100',-1.555
'0:02.102',-1.455
'0:02.104',-1.320
'0:02.106',-1.480
'0:02.108',-1.460
'0:02.110',-1.510
'0:02.112',-1.615
'0:02.114',-1.770
'0:02.116',-1.710
'0:02.118',-1.680
'0:02.120',-1.590
'0:02.122',-1.485
'0:02.124',-1.355
'0:02.126',-1.365
'0:02.128',-1.445
'0:02.130',-1.505
'0:02.132',-1.540
'0:02.134',-1.595
'0:02.136',-1.595
'0:02.138',-1.440
'0:02.140',-1.410
'0:02.142',-1.480
'0:02.144',-1.380
'0:02.146',-1.535
'0:02.148',-1.525
'0:02.150',-1.535
'0:02.152',-1.650
'0:02.154',-1.640
'0:02.156',-1.645
'0:02.158',-1.720
'0:02.160',-1.445
'0:02.162',-1.490
'0:02.164',-1.370
'0:02.166',-1.375
'0:02.168',-1.395
'0:02.170',-1.470
'0:02.172',-1.540
'0:02.174',-1.590
'0:02.176',-1.640
'0:02.178',-1.685
'0:02.180',-1.575
'0:02.182',-1.450
'0:02.184',-1.510
'0:02.186',-1.425
'0:02.188',-1.485
'0:02.190',-1.530
'0:02.192',-1.515
'0:02.194',-1.660
'0:02.196',-1.690
'0:02.198',-1.580
'0:02.200',-1.490
'0:02.202',-1.510
'0:02.204',-1.345
'0:02.206',-1.405
'0:02.208',-1.455
'0:02.210',-1.550
'0:02.212',-1.535
'0:02.214',-1.665
'0:02.216',-1.710
'0:02.218',-1.650
'0:02.220',-1.680
'0:02.222',-1.565
'0:02.224',-1.420
'0:02.226',-1.305
'0:02.228',-1.445
'0:02.230',-1.500
'0:02.232',-1.510
'0:02.234',-1.545
'0:02.236',-1.630
'0:02.238',-1.545
'0:02.240',-1.505
'0:02.242',-1.445
'0:02.244',-1.420
'0:02.246',-1.430
'0:02.248',-1.395
'0:02.250',-1.530
'0:02.252',-1.710
'0:02.254',-1.725
'0:02.256',-1.690
'0:02.258',-1.640
'0:02.260',-1.565
'0:02.262',-1.440
'0:02.264',-1.370
'0:02.266',-1.395
'0:02.268',-1.430
'0:02.270',-1.550
'0:02.272',-1.665
'0:02.274',-1.675
'0:02.276',-1.605
'0:02.278',-1.560
'0:02.280',-1.465
'0:02.282',-1.385
'0:02.284',-1.280
'0:02.286',-1.265
'0:02.288',-1.460
'0:02.290',-1.475
'0:02.292',-1.570
'0:02.294',-1.575
'0:02.296',-1.495
'0:02.298',-1.435
'0:02.300',-1.425
'0:02.302',-1.305
'0:02.304',-1.320
'0:02.306',-1.335
'0:02.308',-1.485
'0:02.310',-1.520
'0:02.312',-1.590
'0:02.314',-1.545
'0:02.316',-1.595
'0:02.318',-1.470
'0:02.320',-1.390
'0:02.322',-1.405
'0:02.324',-1.315
'0:02.326',-1.430
'0:02.328',-1.470
'0:02.330',-1.535
'0:02.332',-1.695
'0:02.334',-1.600
'0:02.336',-1.675
'0:02.338',-1.620
'0:02.340',-1.530
'0:02.342',-1.420
'0:02.344',-1.370
'0:02.346',-1.395
'0:02.348',-1.565
'0:02.350',-1.520
'0:02.352',-1.740
'0:02.354',-1.715
'0:02.356',-1.590
'0:02.358',-1.530
'0:02.360',-1.500
'0:02.362',-1.480
'0:02.364',-1.505
'0:02.366',-1.490
'0:02.368',-1.550
'0:02.370',-1.600
'0:02.372',-1.735
'0:02.374',-1.795
'0:02.376',-1.695
'0:02.378',-1.595
'0:02.380',-1.595
'0:02.382',-1.455
'0:02.384',-1.555
'0:02.386',-1.565
'0:02.388',-1.515
'0:02.390',-1.500
'0:02.392',-1.480
'0:02.394',-1.355
'0:02.396',-1.150
'0:02.398',-1.050
'0:02.400',-0.900
'0:02.402',-0.680
'0:02.404',-0.625
'0:02.406',-0.600
'0:02.408',-0.670
'0:02.410',-0.665
'0:02.412',-0.775
'0:02.414',-0.620
'0:02.416',-0.640
'0:02.418',-0.665
'0:02.420',-0.915
'0:02.422',-1.045
'0:02.424',-1.175
'0:02.426',-1.290
'0:02.428',-1.370
'0:02.430',-1.405
'0:02.432',-1.580
'0:02.434',-1.540
'0:02.436',-1.535
'0:02.438',-1.455
'0:02.440',-1.450
'0:02.442',-1.310
'0:02.444',-1.425
'0:02.446',-1.480
'0:02.448',-1.625
'0:02.450',-1.570
'0:02.452',-1.685
'0:02.454',-1.700
'0:02.456',-1.645
'0:02.458',-1.590
'0:02.460',-1.445
'0:02.462',-1.350
'0:02.464',-1.505
'0:02.466',-1.560
'0:02.468',-1.600
'0:02.470',-1.685
'0:02.472',-1.780
'0:02.474',-1.710
'0:02.476',-1.740
'0:02.478',-1.620
'0:02.480',-1.405
'0:02.482',-1.385
'0:02.484',-1.445
'0:02.486',-1.600
'0:02.488',-1.585
'0:02.490',-1.610
'0:02.492',-1.705
'0:02.494',-1.725
'0:02.496',-1.595
'0:02.498',-1.550
'0:02.500',-1.515
'0:02.502',-1.380
'0:02.504',-1.400
'0:02.506',-1.490
'0:02.508',-1.530
'0:02.510',-1.685
'0:02.512',-1.735
'0:02.514',-1.705
'0:02.516',-1.665
'0:02.518',-1.495
'0:02.520',-1.520
'0:02.522',-1.370
'0:02.524',-1.485
'0:02.526',-1.495
'0:02.528',-1.520
'0:02.530',-1.620
'0:02.532',-1.630
'0:02.534',-1.485
'0:02.536',-1.550
'0:02.538',-1.540
'0:02.540',-1.505
'0:02.542',-1.420
'0:02.544',-1.490
'0:02.546',-1.465
'0:02.548',-1.590
'0:02.550',-1.515
'0:02.552',-1.700
'0:02.554',-1.700
'0:02.556',-1.565
'0:02.558',-1.450
'0:02.560',-1.365
'0:02.562',-1.485
'0:02.564',-1.510
'0:02.566',-1.350
'0:02.568',-1.465
'0:02.570',-1.660
'0:02.572',-1.555
'0:02.574',-1.580
'0:02.576',-1.610
'0:02.578',-1.400
'0:02.580',-1.330
'0:02.582',-1.230
'0:02.584',-1.345
'0:02.586',-1.425
'0:02.588',-1.490
'0:02.590',-1.590
'0:02.592',-1.610
'0:02.594',-1.555
'0:02.596',-1.385
'0:02.598',-1.440
'0:02.600',-1.350
'0:02.602',-1.245
'0:02.604',-1.245
'0:02.606',-1.340
'0:02.608',-1.485
'0:02.610',-1.355
'0:02.612',-1.465
'0:02.614',-1.400
'0:02.616',-1.335
'0:02.618',-1.250
'0:02.620',-1.175
'0:02.622',-1.190
'0:02.624',-1.235
'0:02.626',-1.360
'0:02.628',-1.350
'0:02.630',-1.490
'0:02.632',-1.420
'0:02.634',-1.370
'0:02.636',-1.265
'0:02.638',-1.245
'0:02.640',-1.140
'0:02.642',-1.130
'0:02.644',-1.100
'0:02.646',-1.160
'0:02.648',-1.330
'0:02.650',-1.545
'0:02.652',-1.505
'0:02.654',-1.340
'0:02.656',-1.385
'0:02.658',-1.230
'0:02.660',-1.105
'0:02.662',-1.190
'0:02.664',-1.240
'0:02.666',-1.300
'0:02.668',-1.360
'0:02.670',-1.380
'0:02.672',-1.640
'0:02.674',-1.445
'0:02.676',-1.455
'0:02.678',-1.355
'0:02.680',-1.245
'0:02.682',-1.345
'0:02.684',-1.380
'0:02.686',-1.460
'0:02.688',-1.515
'0:02.690',-1.615
'0:02.692',-1.545
'0:02.694',-1.530
'0:02.696',-1.490
'0:02.698',-1.470
'0:02.700',-1.435
'0:02.702',-1.410
'0:02.704',-1.505
'0:02.706',-1.440
'0:02.708',-1.530
'0:02.710',-1.670
'0:02.712',-1.615
'0:02.714',-1.605
'0:02.716',-1.460
'0:02.718',-1.495
'0:02.720',-1.400
'0:02.722',-1.415
'0:02.724',-1.325
'0:02.726',-1.590
'0:02.728',-1.625
'0:02.730',-1.735
'0:02.732',-1.675
'0:02.734',-1.580
'0:02.736',-1.535
'0:02.738',-1.500
'0:02.740',-1.445
'0:02.742',-1.345
'0:02.744',-1.345
'0:02.746',-1.525
'0:02.748',-1.585
'0:02.750',-1.650
'0:02.752',-1.735
'0:02.754',-1.605
'0:02.756',-1.475
'0:02.758',-1.465
'0:02.760',-1.495
'0:02.762',-1.485
'0:02.764',-1.480
'0:02.766',-1.590
'0:02.768',-1.595
'0:02.770',-1.680
'0:02.772',-1.660
'0:02.774',-1.595
'0:02.776',-1.515
'0:02.778',-1.505
'0:02.780',-1.350
'0:02.782',-1.490
'0:02.784',-1.460
'0:02.786',-1.580
'0:02.788',-1.520
'0:02.790',-1.620
'0:02.792',-1.680
'0:02.794',-1.525
'0:02.796',-1.535
'0:02.798',-1.485
'0:02.800',-1.375
'0:02.802',-1.475
'0:02.804',-1.470
'0:02.806',-1.600
'0:02.808',-1.520
'0:02.810',-1.740
'0:02.812',-1.675
'0:02.814',-1.580
'0:02.816',-1.450
'0:02.818',-1.510
'0:02.820',-1.400
'0:02.822',-1.410
'0:02.824',-1.545
'0:02.826',-1.535
'0:02.828',-1.585
'0:02.830',-1.700
'0:02.832',-1.725
'0:02.834',-1.590
'0:02.836',-1.560
'0:02.838',-1.445
'0:02.840',-1.425
'0:02.842',-1.495
'0:02.844',-1.495
'0:02.846',-1.635
'0:02.848',-1.700
'0:02.850',-1.730
'0:02.852',-1.595
'0:02.854',-1.620
'0:02.856',-1.595
'0:02.858',-1.445
'0:02.860',-1.365
'0:02.862',-1.455
'0:02.864',-1.365
'0:02.866',-1.580
'0:02.868',-1.665
'0:02.870',-1.725
'0:02.872',-1.715
'0:02.874',-1.540
'0:02.876',-1.520
'0:02.878',-1.415
'0:02.880',-1.415
'0:02.882',-1.385
'0:02.884',-1.575
'0:02.886',-1.600
'0:02.888',-1.705
'0:02.890',-1.690
'0:02.892',-1.655
'0:02.894',-1.595
'0:02.896',-1.460
'0:02.898',-1.360
'0:02.900',-1.445
'0:02.902',-1.455
'0:02.904',-1.505
'0:02.906',-1.670
'0:02.908',-1.680
'0:02.910',-1.670
'0:02.912',-1.620
'0:02.914',-1.575
'0:02.916',-1.545
'0:02.918',-1.455
'0:02.920',-1.435
'0:02.922',-1.430
'0:02.924',-1.560
'0:02.926',-1.650
'0:02.928',-1.750
'0:02.930',-1.770
'0:02.932',-1.610
'0:02.934',-1.630
'0:02.936',-1.510
'0:02.938',-1.405
'0:02.940',-1.400
'0:02.942',-1.505
'0:02.944',-1.585
'0:02.946',-1.565
'0:02.948',-1.665
'0:02.950',-1.635
'0:02.952',-1.660
'0:02.954',-1.530
'0:02.956',-1.520
'0:02.958',-1.365
'0:02.960',-1.265
'0:02.962',-1.465
'0:02.964',-1.530
'0:02.966',-1.650
'0:02.968',-1.675
'0:02.970',-1.695
'0:02.972',-1.675
'0:02.974',-1.530
'0:02.976',-1.500
'0:02.978',-1.290
'0:02.980',-1.360
'0:02.982',-1.275
'0:02.984',-1.405
'0:02.986',-1.405
'0:02.988',-1.580
'0:02.990',-1.535
'0:02.992',-1.510
'0:02.994',-1.585
'0:02.996',-1.435
'0:02.998',-1.315
'0:03.000',-1.280
'0:03.002',-1.380
'0:03.004',-1.500
'0:03.006',-1.550
'0:03.008',-1.690
'0:03.010',-1.595
'0:03.012',-1.600
'0:03.014',-1.575
'0:03.016',-1.555
'0:03.018',-1.405
'0:03.020',-1.370
'0:03.022',-1.455
'0:03.024',-1.500
'0:03.026',-1.525
'0:03.028',-1.760
'0:03.030',-1.725
'0:03.032',-1.640
'0:03.034',-1.530
'0:03.036',-1.620
'0:03.038',-1.410
'0:03.040',-1.390
'0:03.042',-1.440
'0:03.044',-1.630
'0:03.046',-1.665
'0:03.048',-1.675
'0:03.050',-1.635
'0:03.052',-1.640
'0:03.054',-1.580
'0:03.056',-1.465
'0:03.058',-1.510
'0:03.060',-1.555
'0:03.062',-1.560
'0:03.064',-1.605
'0:03.066',-1.565
'0:03.068',-1.750
'0:03.070',-1.855
'0:03.072',-1.745
'0:03.074',-1.665
'0:03.076',-1.610
'0:03.078',-1.450
'0:03.080',-1.300
'0:03.082',-1.320
'0:03.084',-1.320
'0:03.086',-1.165
'0:03.088',-1.215
'0:03.090',-1.160
'0:03.092',-1.020
'0:03.094',-0.775
'0:03.096',-0.570
'0:03.098',-0.490
'0:03.100',-0.535
'0:03.102',-0.545
'0:03.104',-0.530
'0:03.106',-0.470
'0:03.108',-0.685
'0:03.110',-0.895
'0:03.112',-1.185
'0:03.114',-1.330
'0:03.116',-1.290
'0:03.118',-1.325
'0:03.120',-1.260
'0:03.122',-1.310
'0:03.124',-1.525
'0:03.126',-1.465
'0:03.128',-1.620
'0:03.130',-1.630
'0:03.132',-1.580
'0:03.134',-1.510
'0:03.136',-1.485
'0:03.138',-1.445
'0:03.140',-1.485
'0:03.142',-1.490
'0:03.144',-1.540
'0:03.146',-1.715
'0:03.148',-1.825
'0:03.150',-1.680
'0:03.152',-1.660
'0:03.154',-1.500
'0:03.156',-1.430
'0:03.158',-1.400
'0:03.160',-1.420
'0:03.162',-1.555
'0:03.164',-1.670
'0:03.166',-1.755
'0:03.168',-1.595
'0:03.170',-1.585
'0:03.172',-1.620
'0:03.174',-1.580
'0:03.176',-1.485
'0:03.178',-1.445
'0:03.180',-1.550
'0:03.182',-1.500
'0:03.184',-1.570
'0:03.186',-1.695
'0:03.188',-1.700
'0:03.190',-1.725
'0:03.192',-1.645
'0:03.194',-1.505
'0:03.196',-1.490
'0:03.198',-1.495
'0:03.200',-1.420
'0:03.202',-1.560
'0:03.204',-1.580
'0:03.206',-1.640
'0:03.208',-1.615
'0:03.210',-1.635
'0:03.212',-1.570
'0:03.214',-1.555
'0:03.216',-1.375
'0:03.218',-1.435
'0:03.220',-1.455
'0:03.222',-1.650
'0:03.224',-1.625
'0:03.226',-1.615
'0:03.228',-1.755
'0:03.230',-1.640
'0:03.232',-1.545
'0:03.234',-1.465
'0:03.236',-1.405
'0:03.238',-1.355
'0:03.240',-1.520
'0:03.242',-1.425
'0:03.244',-1.620
'0:03.246',-1.605
'0:03.248',-1.640
'0:03.250',-1.620
'0:03.252',-1.550
'0:03.254',-1.580
'0:03.256',-1.400
'0:03.258',-1.365
'0:03.260',-1.430
'0:03.262',-1.450
'0:03.264',-1.480
'0:03.266',-1.640
'0:03.268',-1.630
'0:03.270',-1.515
'0:03.272',-1.525
'0:03.274',-1.465
'0:03.276',-1.245
'0:03.278',-1.330
'0:03.280',-1.250
'0:03.282',-1.455
'0:03.284',-1.520
'0:03.286',-1.555
'0:03.288',-1.525
'0:03.290',-1.495
'0:03.292',-1.410
'0:03.294',-1.365
'0:03.296',-1.335
'0:03.298',-1.290
'0:03.300',-1.385
'0:03.302',-1.335
'0:03.304',-1.345
'0:03.306',-1.580
'0:03.308',-1.455
'0:03.310',-1.365
'0:03.312',-1.315
'0:03.314',-1.285
'0:03.316',-1.165
'0:03.318',-1.245
'0:03.320',-1.240
'0:03.322',-1.260
'0:03.324',-1.295
'0:03.326',-1.270
'0:03.328',-1.360
'0:03.330',-1.225
'0:03.332',-1.320
'0:03.334',-1.250
'0:03.336',-1.130
'0:03.338',-1.185
'0:03.340',-1.350
'0:03.342',-1.360
'0:03.344',-1.415
'0:03.346',-1.545
'0:03.348',-1.405
'0:03.350',-1.315
'0:03.352',-1.290
'0:03.354',-1.305
'0:03.356',-1.170
'0:03.358',-1.150
'0:03.360',-1.270
'0:03.362',-1.345
'0:03.364',-1.375
'0:03.366',-1.510
'0:03.368',-1.430
'0:03.370',-1.515
'0:03.372',-1.455
'0:03.374',-1.445
'0:03.376',-1.290
'0:03.378',-1.445
'0:03.380',-1.385
'0:03.382',-1.615
'0:03.384',-1.580
'0:03.386',-1.585
'0:03.388',-1.610
'0:03.390',-1.520
'0:03.392',-1.495
'0:03.394',-1.470
'0:03.396',-1.360
'0:03.398',-1.405
'0:03.400',-1.445
'0:03.402',-1.505
'0:03.404',-1.615
'0:03.406',-1.705
'0:03.408',-1.680
'0:03.410',-1.600
'0:03.412',-1.460
'0:03.414',-1.420
'0:03.416',-1.410
'0:03.418',-1.345
'0:03.420',-1.445
'0:03.422',-1.580
'0:03.424',-1.390
'0:03.426',-1.700
'0:03.428',-1.850
'0:03.430',-1.630
'0:03.432',-1.515
'0:03.434',-1.470
'0:03.436',-1.380
'0:03.438',-1.440
'0:03.440',-1.520
'0:03.442',-1.580
'0:03.444',-1.675
'0:03.446',-1.670
'0:03.448',-1.685
'0:03.450',-1.625
'0:03.452',-1.555
'0:03.454',-1.425
'0:03.456',-1.380
'0:03.458',-1.415
'0:03.460',-1.545
'0:03.462',-1.555
'0:03.464',-1.630
'0:03.466',-1.580
'0:03.468',-1.570
'0:03.470',-1.545
'0:03.472',-1.490
'0:03.474',-1.450
'0:03.476',-1.420
'0:03.478',-1.395
'0:03.480',-1.540
'0:03.482',-1.605
'0:03.484',-1.735
'0:03.486',-1.675
'0:03.488',-1.660
'0:03.490',-1.600
'0:03.492',-1.535
'0:03.494',-1.445
'0:03.496',-1.425
'0:03.498',-1.435
'0:03.500',-1.550
'0:03.502',-1.495
'0:03.504',-1.540
'0:03.506',-1.620
'0:03.508',-1.620
'0:03.510',-1.545
'0:03.512',-1.505
'0:03.514',-1.380
'0:03.516',-1.400
'0:03.518',-1.505
'0:03.520',-1.520
'0:03.522',-1.575
'0:03.524',-1.760
'0:03.526',-1.725
'0:03.528',-1.630
'0:03.530',-1.665
'0:03.532',-1.525
'0:03.534',-1.385
'0:03.536',-1.410
'0:03.538',-1.445
'0:03.540',-1.535
'0:03.542',-1.590
'0:03.544',-1.685
'0:03.546',-1.645
'0:03.548',-1.615
'0:03.550',-1.585
'0:03.552',-1.570
'0:03.554',-1.365
'0:03.556',-1.410
'0:03.558',-1.435
'0:03.560',-1.645
'0:03.562',-1.555
'0:03.564',-1.755
'0:03.566',-1.705
'0:03.568',-1.690
'0:03.570',-1.515
'0:03.572',-1.530
'0:03.574',-1.330
'0:03.576',-1.365
'0:03.578',-1.475
'0:03.580',-1.615
'0:03.582',-1.570
'0:03.584',-1.690
'0:03.586',-1.675
'0:03.588',-1.630
'0:03.590',-1.555
'0:03.592',-1.510
'0:03.594',-1.430
'0:03.596',-1.420
'0:03.598',-1.460
'0:03.600',-1.530
'0:03.602',-1.560
'0:03.604',-1.720
'0:03.606',-1.560
'0:03.608',-1.420
'0:03.610',-1.485
'0:03.612',-1.665
'0:03.614',-1.580
'0:03.616',-1.485
'0:03.618',-1.500
'0:03.620',-1.545
'0:03.622',-1.625
'0:03.624',-1.810
'0:03.626',-1.690
'0:03.628',-1.625
'0:03.630',-1.520
'0:03.632',-1.510
'0:03.634',-1.380
'0:03.636',-1.460
'0:03.638',-1.500
'0:03.640',-1.535
'0:03.642',-1.550
'0:03.644',-1.625
'0:03.646',-1.620
'0:03.648',-1.510
'0:03.650',-1.620
'0:03.652',-1.490
'0:03.654',-1.360
'0:03.656',-1.465
'0:03.658',-1.570
'0:03.660',-1.570
'0:03.662',-1.650
'0:03.664',-1.700
'0:03.666',-1.680
'0:03.668',-1.610
'0:03.670',-1.500
'0:03.672',-1.480
'0:03.674',-1.295
'0:03.676',-1.295
'0:03.678',-1.455
'0:03.680',-1.590
'0:03.682',-1.585
'0:03.684',-1.635
'0:03.686',-1.670
'0:03.688',-1.580
'0:03.690',-1.480
'0:03.692',-1.405
'0:03.694',-1.305
'0:03.696',-1.335
'0:03.698',-1.470
'0:03.700',-1.475
'0:03.702',-1.480
'0:03.704',-1.620
'0:03.706',-1.490
'0:03.708',-1.520
'0:03.710',-1.380
'0:03.712',-1.390
'0:03.714',-1.310
'0:03.716',-1.430
'0:03.718',-1.375
'0:03.720',-1.585
'0:03.722',-1.575
'0:03.724',-1.615
'0:03.726',-1.620
'0:03.728',-1.560
'0:03.730',-1.485
'0:03.732',-1.435
'0:03.734',-1.410
'0:03.736',-1.370
'0:03.738',-1.390
'0:03.740',-1.520
'0:03.742',-1.710
'0:03.744',-1.705
'0:03.746',-1.700
'0:03.748',-1.690
'0:03.750',-1.600
'0:03.752',-1.515
'0:03.754',-1.395
'0:03.756',-1.395
'0:03.758',-1.530
'0:03.760',-1.610
'0:03.762',-1.680
'0:03.764',-1.675
'0:03.766',-1.710
'0:03.768',-1.590
'0:03.770',-1.595
'0:03.772',-1.445
'0:03.774',-1.495
'0:03.776',-1.590
'0:03.778',-1.830
'0:03.780',-1.835
'0:03.782',-1.705
'0:03.784',-1.650
'0:03.786',-1.705
'0:03.788',-1.685
'0:03.790',-1.495
'0:03.792',-1.420
'0:03.794',-1.240
'0:03.796',-1.220
'0:03.798',-1.250
'0:03.800',-1.090
'0:03.802',-1.170
'0:03.804',-0.980
'0:03.806',-0.825
'0:03.808',-0.690
'0:03.810',-0.575
'0:03.812',-0.480
'0:03.814',-0.510
'0:03.816',-0.495
'0:03.818',-0.565
'0:03.820',-0.690
'0:03.822',-0.940
'0:03.824',-1.095
'0:03.826',-1.385
'0:03.828',-1.400
'0:03.830',-1.360
'0:03.832',-1.255
'0:03.834',-1.300
'0:03.836',-1.340
'0:03.838',-1.390
'0:03.840',-1.525
'0:03.842',-1.595
'0:03.844',-1.605
'0:03.846',-1.595
'0:03.848',-1.600
'0:03.850',-1.480
'0:03.852',-1.430
'0:03.854',-1.460
'0:03.856',-1.455
'0:03.858',-1.565
'0:03.860',-1.630
'0:03.862',-1.785
'0:03.864',-1.675
'0:03.866',-1.820
'0:03.868',-1.720
'0:03.870',-1.500
'0:03.872',-1.330
'0:03.874',-1.365
'0:03.876',-1.405
'0:03.878',-1.555
'0:03.880',-1.595
'0:03.882',-1.735
'0:03.884',-1.710
'0:03.886',-1.670
'0:03.888',-1.590
'0:03.890',-1.545
'0:03.892',-1.500
'0:03.894',-1.435
'0:03.896',-1.495
'0:03.898',-1.545
'0:03.900',-1.625
'0:03.902',-1.750
'0:03.904',-1.760
'0:03.906',-1.690
'0:03.908',-1.500
'0:03.910',-1.550
'0:03.912',-1.365
'0:03.914',-1.395
'0:03.916',-1.285
'0:03.918',-1.550
'0:03.920',-1.660
'0:03.922',-1.710
'0:03.924',-1.780
'0:03.926',-1.660
'0:03.928',-1.535
'0:03.930',-1.545
'0:03.932',-1.425
'0:03.934',-1.415
'0:03.936',-1.445
'0:03.938',-1.640
'0:03.940',-1.615
'0:03.942',-1.675
'0:03.944',-1.785
'0:03.946',-1.655
'0:03.948',-1.510
'0:03.950',-1.510
'0:03.952',-1.280
'0:03.954',-1.360
'0:03.956',-1.430
'0:03.958',-1.505
'0:03.960',-1.575
'0:03.962',-1.620
'0:03.964',-1.625
'0:03.966',-1.560
'0:03.968',-1.510
'0:03.970',-1.530
'0:03.972',-1.395
'0:03.974',-1.310
'0:03.976',-1.495
'0:03.978',-1.425
'0:03.980',-1.575
'0:03.982',-1.605
'0:03.984',-1.595
'0:03.986',-1.425
'0:03.988',-1.400
'0:03.990',-1.290
'0:03.992',-1.300
'0:03.994',-1.305
'0:03.996',-1.395
'0:03.998',-1.405
'0:04.000',-1.535
'0:04.002',-1.570
'0:04.004',-1.535
'0:04.006',-1.450
'0:04.008',-1.345
'0:04.010',-1.340
'0:04.012',-1.230
'0:04.014',-1.210
'0:04.016',-1.285
'0:04.018',-1.410
'0:04.020',-1.405
'0:04.022',-1.400
'0:04.024',-1.415
'0:04.026',-1.335
'0:04.028',-1.260
'0:04.030',-1.270
'0:04.032',-1.180
'0:04.034',-1.185
'0:04.036',-1.245
'0:04.038',-1.440
'0:04.040',-1.350
'0:04.042',-1.450
'0:04.044',-1.420
'0:04.046',-1.340
'0:04.048',-1.315
'0:04.050',-1.185
'0:04.052',-1.070
'0:04.054',-1.195
'0:04.056',-1.130
'0:04.058',-1.265
'0:04.060',-1.400
'0:04.062',-1.400
'0:04.064',-1.340
'0:04.066',-1.390
'0:04.068',-1.260
'0:04.070',-1.205
'0:04.072',-1.205
'0:04.074',-1.430
'0:04.076',-1.240
'0:04.078',-1.330
'0:04.080',-1.545
'0:04.082',-1.520
'0:04.084',-1.545
'0:04.086',-1.440
'0:04.088',-1.380
'0:04.090',-1.305
'0:04.092',-1.360
'0:04.094',-1.415
'0:04.096',-1.440
'0:04.098',-1.485
'0:04.100',-1.580
'0:04.102',-1.600
'0:04.104',-1.715
'0:04.106',-1.530
'0:04.108',-1.525
'0:04.110',-1.335
'0:04.112',-1.360
'0:04.114',-1.395
'0:04.116',-1.475
'0:04.118',-1.565
'0:04.120',-1.715
'0:04.122',-1.705
'0:04.124',-1.595
'0:04.126',-1.570
'0:04.128',-1.595
'0:04.130',-1.425
'0:04.132',-1.420
'0:04.134',-1.570
'0:04.136',-1.475
'0:04.138',-1.545
'0:04.140',-1.710
'0:04.142',-1.560
'0:04.144',-1.505
'0:04.146',-1.485
'0:04.148',-1.545
'0:04.150',-1.365
'0:04.152',-1.435
'0:04.154',-1.490
'0:04.156',-1.480
'0:04.158',-1.535
'0:04.160',-1.720
'0:04.162',-1.660
'0:04.164',-1.635
'0:04.166',-1.580
'0:04.168',-1.515
'0:04.170',-1.470
'0:04.172',-1.385
'0:04.174',-1.430
'0:04.176',-1.505
'0:04.178',-1.545
'0:04.180',-1.695
'0:04.182',-1.645
'0:04.184',-1.555
'0:04.186',-1.475
'0:04.188',-1.525
'0:04.190',-1.440
'0:04.192',-1.440
'0:04.194',-1.495
'0:04.196',-1.515
'0:04.198',-1.625
'0:04.200',-1.775
'0:04.202',-1.705
'0:04.204',-1.615
'0:04.206',-1.565
'0:04.208',-1.450
'0:04.210',-1.355
'0:04.212',-1.385
'0:04.214',-1.470
'0:04.216',-1.640
'0:04.218',-1.615
'0:04.220',-1.650
'0:04.222',-1.640
'0:04.224',-1.605
'0:04.226',-1.555
'0:04.228',-1.485
'0:04.230',-1.400
'0:04.232',-1.460
'0:04.234',-1.555
'0:04.236',-1.625
'0:04.238',-1.550
'0:04.240',-1.655
'0:04.242',-1.670
'0:04.244',-1.640
'0:04.246',-1.520
'0:04.248',-1.540
'0:04.250',-1.360
'0:04.252',-1.450
'0:04.254',-1.480
'0:04.256',-1.550
'0:04.258',-1.675
'0:04.260',-1.665
'0:04.262',-1.700
'0:04.264',-1.590
'0:04.266',-1.525
'0:04.268',-1.585
'0:04.270',-1.360
'0:04.272',-1.370
'0:04.274',-1.425
'0:04.276',-1.610
'0:04.278',-1.575
'0:04.280',-1.705
'0:04.282',-1.720
'0:04.284',-1.595
'0:04.286',-1.535
'0:04.288',-1.385
'0:04.290',-1.505
'0:04.292',-1.470
'0:04.294',-1.455
'0:04.296',-1.600
'0:04.298',-1.670
'0:04.300',-1.655
'0:04.302',-1.655
'0:04.304',-1.575
'0:04.306',-1.590
'0:04.308',-1.500
'0:04.310',-1.410
'0:04.312',-1.475
'0:04.314',-1.555
'0:04.316',-1.575
'0:04.318',-1.570
'0:04.320',-1.670
'0:04.322',-1.745
'0:04.324',-1.585
'0:04.326',-1.500
'0:04.328',-1.440
'0:04.330',-1.465
'0:04.332',-1.515
'0:04.334',-1.470
'0:04.336',-1.560
'0:04.338',-1.635
'0:04.340',-1.715
'0:04.342',-1.645
'0:04.344',-1.625
'0:04.346',-1.560
'0:04.348',-1.440
'0:04.350',-1.455
'0:04.352',-1.505
'0:04.354',-1.545
'0:04.356',-1.630
'0:04.358',-1.640
'0:04.360',-1.595
'0:04.362',-1.680
'0:04.364',-1.510
'0:04.366',-1.530
'0:04.368',-1.405
'0:04.370',-1.480
'0:04.372',-1.480
'0:04.374',-1.515
'0:04.376',-1.620
'0:04.378',-1.605
'0:04.380',-1.675
'0:04.382',-1.625
'0:04.384',-1.535
'0:04.386',-1.515
'0:04.388',-1.410
'0:04.390',-1.445
'0:04.392',-1.450
'0:04.394',-1.485
'0:04.396',-1.470
'0:04.398',-1.610
'0:04.400',-1.610
'0:04.402',-1.565
'0:04.404',-1.535
'0:04.406',-1.395
'0:04.408',-1.270
'0:04.410',-1.270
'0:04.412',-1.370
'0:04.414',-1.445
'0:04.416',-1.520
'0:04.418',-1.650
'0:04.420',-1.530
'0:04.422',-1.500
'0:04.424',-1.465
'0:04.426',-1.400
'0:04.428',-1.400
'0:04.430',-1.370
'0:04.432',-1.460
'0:04.434',-1.480
'0:04.436',-1.510
'0:04.438',-1.730
'0:04.440',-1.660
'0:04.442',-1.565
'0:04.444',-1.490
'0:04.446',-1.545
'0:04.448',-1.480
'0:04.450',-1.395
'0:04.452',-1.510
'0:04.454',-1.620
'0:04.456',-1.590
'0:04.458',-1.790
'0:04.460',-1.625
'0:04.462',-1.630
'0:04.464',-1.570
'0:04.466',-1.465
'0:04.468',-1.425
'0:04.470',-1.415
'0:04.472',-1.435
'0:04.474',-1.530
'0:04.476',-1.595
'0:04.478',-1.710
'0:04.480',-1.680
'0:04.482',-1.600
'0:04.484',-1.580
'0:04.486',-1.670
'0:04.488',-1.545
'0:04.490',-1.500
'0:04.492',-1.520
'0:04.494',-1.665
'0:04.496',-1.650
'0:04.498',-1.785
'0:04.500',-1.760
'0:04.502',-1.625
'0:04.504',-1.460
'0:04.506',-1.365
'0:04.508',-1.190
'0:04.510',-0.980
'0:04.512',-0.885
'0:04.514',-1.020
'0:04.516',-0.905
'0:04.518',-0.995
'0:04.520',-0.950
'0:04.522',-0.760
'0:04.524',-0.705
'0:04.526',-0.655
'0:04.528',-0.535
'0:04.530',-0.530
'0:04.532',-0.675
'0:04.534',-0.945
'0:04.536',-1.225
'0:04.538',-1.595
'0:04.540',-1.640
'0:04.542',-1.650
'0:04.544',-1.310
'0:04.546',-1.315
'0:04.548',-1.275
'0:04.550',-1.380
'0:04.552',-1.310
'0:04.554',-1.485
'0:04.556',-1.590
'0:04.558',-1.670
'0:04.560',-1.665
'0:04.562',-1.590
'0:04.564',-1.475
'0:04.566',-1.590
'0:04.568',-1.490
'0:04.570',-1.505
'0:04.572',-1.450
'0:04.574',-1.625
'0:04.576',-1.600
'0:04.578',-1.695
'0:04.580',-1.730
'0:04.582',-1.620
'0:04.584',-1.505
'0:04.586',-1.535
'0:04.588',-1.445
'0:04.590',-1.385
'0:04.592',-1.570
'0:04.594',-1.650
'0:04.596',-1.680
'0:04.598',-1.700
'0:04.600',-1.585
'0:04.602',-1.555
'0:04.604',-1.475
'0:04.606',-1.425
'0:04.608',-1.415
'0:04.610',-1.505
'0:04.612',-1.515
'0:04.614',-1.570
'0:04.616',-1.700
'0:04.618',-1.695
'0:04.620',-1.700
'0:04.622',-1.495
'0:04.624',-1.550
'0:04.626',-1.490
'0:04.628',-1.415
'0:04.630',-1.445
'0:04.632',-1.460
'0:04.634',-1.575
'0:04.636',-1.605
'0:04.638',-1.570
'0:04.640',-1.610
'0:04.642',-1.600
'0:04.644',-1.435
'0:04.646',-1.560
'0:04.648',-1.380
'0:04.650',-1.415
'0:04.652',-1.525
'0:04.654',-1.590
'0:04.656',-1.635
'0:04.658',-1.640
'0:04.660',-1.675
'0:04.662',-1.480
'0:04.664',-1.450
'0:04.666',-1.355
'0:04.668',-1.325
'0:04.670',-1.375
'0:04.672',-1.445
'0:04.674',-1.555
'0:04.676',-1.600
'0:04.678',-1.560
'0:04.680',-1.560
'0:04.682',-1.455
'0:04.684',-1.395
'0:04.686',-1.255
'0:04.688',-1.390
'0:04.690',-1.365
'0:04.692',-1.450
'0:04.694',-1.485
'0:04.696',-1.555
'0:04.698',-1.595
'0:04.700',-1.485
'0:04.702',-1.490
'0:04.704',-1.285
'0:04.706',-1.220
'0:04.708',-1.310
'0:04.710',-1.255
'0:04.712',-1.290
'0:04.714',-1.435
'0:04.716',-1.460
'0:04.718',-1.485
'0:04.720',-1.515
'0:04.722',-1.325
'0:04.724',-1.315
'0:04.726',-1.270
'0:04.728',-1.225
'0:04.730',-1.170
'0:04.732',-1.295
'0:04.734',-1.295
'0:04.736',-1.440
'0:04.738',-1.375
'0:04.740',-1.250
'0:04.742',-1.250
'0:04.744',-1.275
'0:04.746',-1.150
'0:04.748',-1.150
'0:04.750',-1.125
'0:04.752',-1.265
'0:04.754',-1.290
'0:04.756',-1.340
'0:04.758',-1.350
'0:04.760',-1.425
'0:04.762',-1.215
'0:04.764',-1.070
'0:04.766',-1.080
'0:04.768',-1.205
'0:04.770',-1.165
'0:04.772',-1.250
'0:04.774',-1.385
'0:04.776',-1.420
'0:04.778',-1.425
'0:04.780',-1.365
'0:04.782',-1.230
'0:04.784',-1.285
'0:04.786',-1.170
'0:04.788',-1.195
'0:04.790',-1.255
'0:04.792',-1.400
'0:04.794',-1.420
'0:04.796',-1.550
'0:04.798',-1.555
'0:04.800',-1.620
'0:04.802',-1.420
'0:04.804',-1.325
'0:04.806',-1.270
'0:04.808',-1.385
'0:04.810',-1.465
'0:04.812',-1.420
'0:04.814',-1.505
'0:04.816',-1.705
'0:04.818',-1.625
'0:04.820',-1.485
'0:04.822',-1.390
'0:04.824',-1.435
'0:04.826',-1.400
'0:04.828',-1.430
'0:04.830',-1.425
'0:04.832',-1.550
'0:04.834',-1.595
'0:04.836',-1.670
'0:04.838',-1.725
'0:04.840',-1.590
'0:04.842',-1.525
'0:04.844',-1.495
'0:04.846',-1.445
'0:04.848',-1.400
'0:04.850',-1.495
'0:04.852',-1.525
'0:04.854',-1.570
'0:04.856',-1.575
'0:04.858',-1.665
'0:04.860',-1.525
'0:04.862',-1.440
'0:04.864',-1.435
'0:04.866',-1.365
'0:04.868',-1.365
'0:04.870',-1.495
'0:04.872',-1.650
'0:04.874',-1.620
'0:04.876',-1.630
'0:04.878',-1.580
'0:04.880',-1.640
'0:04.882',-1.555
'0:04.884',-1.445
'0:04.886',-1.465
'0:04.888',-1.390
'0:04.890',-1.495
'0:04.892',-1.565
'0:04.894',-1.605
'0:04.896',-1.655
'0:04.898',-1.540
'0:04.900',-1.570
'0:04.902',-1.445
'0:04.904',-1.420
'0:04.906',-1.415
'0:04.908',-1.490
'0:04.910',-1.565
'0:04.912',-1.585
'0:04.914',-1.645
'0:04.916',-1.605
'0:04.918',-1.600
'0:04.920',-1.505
'0:04.922',-1.510
'0:04.924',-1.405
'0:04.926',-1.355
'0:04.928',-1.435
'0:04.930',-1.535
'0:04.932',-1.570
'0:04.934',-1.605
'0:04.936',-1.640
'0:04.938',-1.560
'0:04.940',-1.650
'0:04.942',-1.400
'0:04.944',-1.370
'0:04.946',-1.375
'0:04.948',-1.465
'0:04.950',-1.520
'0:04.952',-1.460
'0:04.954',-1.595
'0:04.956',-1.715
'0:04.958',-1.645
'0:04.960',-1.585
'0:04.962',-1.545
'0:04.964',-1.415
'0:04.966',-1.395
'0:04.968',-1.430
'0:04.970',-1.495
'0:04.972',-1.570
'0:04.974',-1.585
'0:04.976',-1.620
'0:04.978',-1.575
'0:04.980',-1.570
'0:04.982',-1.555
'0:04.984',-1.435
'0:04.986',-1.380
'0:04.988',-1.390
'0:04.990',-1.415
'0:04.992',-1.630
'0:04.994',-1.690
'0:04.996',-1.715
'0:04.998',-1.620
'0:05.000',-1.505
'0:05.002',-1.470
'0:05.004',-1.365
'0:05.006',-1.380
'0:05.008',-1.460
'0:05.010',-1.480
'0:05.012',-1.545
'0:05.014',-1.750
'0:05.016',-1.590
'0:05.018',-1.475
'0:05.020',-1.450
'0:05.022',-1.380
'0:05.024',-1.305
'0:05.026',-1.380
'0:05.028',-1.500
'0:05.030',-1.580
'0:05.032',-1.605
'0:05.034',-1.720
'0:05.036',-1.720
'0:05.038',-1.610
'0:05.040',-1.550
'0:05.042',-1.545
'0:05.044',-1.390
'0:05.046',-1.350
'0:05.048',-1.370
'0:05.050',-1.535
'0:05.052',-1.590
'0:05.054',-1.615
'0:05.056',-1.610
'0:05.058',-1.635
'0:05.060',-1.515
'0:05.062',-1.500
'0:05.064',-1.285
'0:05.066',-1.355
'0:05.068',-1.430
'0:05.070',-1.630
'0:05.072',-1.595
'0:05.074',-1.680
'0:05.076',-1.655
'0:05.078',-1.720
'0:05.080',-1.560
'0:05.082',-1.450
'0:05.084',-1.335
'0:05.086',-1.375
'0:05.088',-1.370
'0:05.090',-1.525
'0:05.092',-1.465
'0:05.094',-1.610
'0:05.096',-1.605
'0:05.098',-1.495
'0:05.100',-1.310
'0:05.102',-1.320
'0:05.104',-1.290
'0:05.106',-1.185
'0:05.108',-1.325
'0:05.110',-1.390
'0:05.112',-1.465
'0:05.114',-1.550
'0:05.116',-1.605
'0:05.118',-1.540
'0:05.120',-1.465
'0:05.122',-1.410
'0:05.124',-1.355
'0:05.126',-1.370
'0:05.128',-1.425
'0:05.130',-1.515
'0:05.132',-1.530
'0:05.134',-1.645
'0:05.136',-1.600
'0:05.138',-1.565
'0:05.140',-1.500
'0:05.142',-1.485
'0:05.144',-1.390
'0:05.146',-1.465
'0:05.148',-1.490
'0:05.150',-1.460
'0:05.152',-1.515
'0:05.154',-1.785
'0:05.156',-1.670
'0:05.158',-1.550
'0:05.160',-1.520
'0:05.162',-1.480
'0:05.164',-1.420
'0:05.166',-1.370
'0:05.168',-1.405
'0:05.170',-1.490
'0:05.172',-1.680
'0:05.174',-1.680
'0:05.176',-1.695
'0:05.178',-1.555
'0:05.180',-1.635
'0:05.182',-1.480
'0:05.184',-1.470
'0:05.186',-1.475
'0:05.188',-1.605
'0:05.190',-1.625
'0:05.192',-1.695
'0:05.194',-1.740
'0:05.196',-1.545
'0:05.198',-1.435
'0:05.200',-1.245
'0:05.202',-1.030
'0:05.204',-0.925
'0:05.206',-0.885
'0:05.208',-0.860
'0:05.210',-0.715
'0:05.212',-0.885
'0:05.214',-0.885
'0:05.216',-0.790
'0:05.218',-0.720
'0:05.220',-0.590
'0:05.222',-0.415
'0:05.224',-0.550
'0:05.226',-0.705
'0:05.228',-0.955
'0:05.230',-1.490
'0:05.232',-1.415
'0:05.234',-1.480
'0:05.236',-1.495
'0:05.238',-1.395
'0:05.240',-1.405
'0:05.242',-1.390
'0:05.244',-1.310
'0:05.246',-1.305
'0:05.248',-1.485
'0:05.250',-1.420
'0:05.252',-1.530
'0:05.254',-1.650
'0:05.256',-1.570
'0:05.258',-1.565
'0:05.260',-1.485
'0:05.262',-1.395
'0:05.264',-1.355
'0:05.266',-1.430
'0:05.268',-1.620
'0:05.270',-1.565
'0:05.272',-1.690
'0:05.274',-1.650
'0:05.276',-1.645
'0:05.278',-1.515
'0:05.280',-1.405
'0:05.282',-1.410
'0:05.284',-1.440
'0:05.286',-1.455
'0:05.288',-1.505
'0:05.290',-1.595
'0:05.292',-1.765
'0:05.294',-1.690
'0:05.296',-1.580
'0:05.298',-1.605
'0:05.300',-1.590
'0:05.302',-1.475
'0:05.304',-1.390
'0:05.306',-1.425
'0:05.308',-1.460
'0:05.310',-1.585
'0:05.312',-1.695
'0:05.314',-1.675
'0:05.316',-1.525
'0:05.318',-1.490
'0:05.320',-1.455
'0:05.322',-1.340
'0:05.324',-1.350
'0:05.326',-1.430
'0:05.328',-1.555
'0:05.330',-1.570
'0:05.332',-1.710
'0:05.334',-1.630
'0:05.336',-1.620
'0:05.338',-1.560
'0:05.340',-1.520
'0:05.342',-1.300
'0:05.344',-1.355
'0:05.346',-1.450
'0:05.348',-1.530
'0:05.350',-1.525
'0:05.352',-1.545
'0:05.354',-1.630
'0:05.356',-1.540
'0:05.358',-1.430
'0:05.360',-1.405
'0:05.362',-1.295
'0:05.364',-1.355
'0:05.366',-1.395
'0:05.368',-1.480
'0:05.370',-1.600
'0:05.372',-1.650
'0:05.374',-1.585
'0:05.376',-1.605
'0:05.378',-1.535
'0:05.380',-1.380
'0:05.382',-1.295
'0:05.384',-1.425
'0:05.386',-1.360
'0:05.388',-1.340
'0:05.390',-1.400
'0:05.392',-1.575
'0:05.394',-1.550
'0:05.396',-1.505
'0:05.398',-1.425
'0:05.400',-1.320
'0:05.402',-1.290
'0:05.404',-1.335
'0:05.406',-1.280
'0:05.408',-1.380
'0:05.410',-1.425
'0:05.412',-1.520
'0:05.414',-1.400
'0:05.416',-1.330
'0:05.418',-1.320
'0:05.420',-1.250
'0:05.422',-1.165
'0:05.424',-1.235
'0:05.426',-1.350
'0:05.428',-1.205
'0:05.430',-1.325
'0:05.432',-1.540
'0:05.434',-1.370
'0:05.436',-1.315
'0:05.438',-1.220
'0:05.440',-1.130
'0:05.442',-1.120
'0:05.444',-1.115
'0:05.446',-1.135
'0:05.448',-1.265
'0:05.450',-1.325
'0:05.452',-1.360
'0:05.454',-1.420
'0:05.456',-1.345
'0:05.458',-1.220
'0:05.460',-1.165
'0:05.462',-1.170
'0:05.464',-1.115
'0:05.466',-1.215
'0:05.468',-1.290
'0:05.470',-1.295
'0:05.472',-1.495
'0:05.474',-1.280
'0:05.476',-1.405
'0:05.478',-1.335
'0:05.480',-1.240
'0:05.482',-1.210
'0:05.484',-1.310
'0:05.486',-1.370
'0:05.488',-1.330
'0:05.490',-1.515
'0:05.492',-1.600
'0:05.494',-1.630
'0:05.496',-1.455
'0:05.498',-1.450
'0:05.500',-1.415
'0:05.502',-1.295
'0:05.504',-1.315
'0:05.506',-1.425
'0:05.508',-1.555
'0:05.510',-1.530
'0:05.512',-1.525
'0:05.514',-1.650
'0:05.516',-1.485
'0:05.518',-1.405
'0:05.520',-1.480
'0:05.522',-1.375
'0:05.524',-1.395
'0:05.526',-1.490
'0:05.528',-1.705
'0:05.530',-1.570
'0:05.532',-1.620
'0:05.534',-1.655
'0:05.536',-1.610
'0:05.538',-1.505
'0:05.540',-1.390
'0:05.542',-1.395
'0:05.544',-1.375
'0:05.546',-1.460
'0:05.548',-1.515
'0:05.550',-1.620
'0:05.552',-1.680
'0:05.554',-1.580
'0:05.556',-1.555
'0:05.558',-1.505
'0:05.560',-1.435
'0:05.562',-1.350
'0:05.564',-1.395
'0:05.566',-1.565
'0:05.568',-1.505
'0:05.570',-1.650
'0:05.572',-1.625
'0:05.574',-1.665
'0:05.576',-1.600
'0:05.578',-1.505
'0:05.580',-1.380
'0:05.582',-1.240
'0:05.584',-1.290
'0:05.586',-1.440
'0:05.588',-1.690
'0:05.590',-1.595
'0:05.592',-1.625
'0:05.594',-1.600
'0:05.596',-1.575
'0:05.598',-1.590
'0:05.600',-1.435
'0:05.602',-1.340
'0:05.604',-1.380
'0:05.606',-1.515
'0:05.608',-1.595
'0:05.610',-1.695
'0:05.612',-1.660
'0:05.614',-1.565
'0:05.616',-1.430
'0:05.618',-1.455
'0:05.620',-1.390
'0:05.622',-1.440
'0:05.624',-1.450
'0:05.626',-1.510
'0:05.628',-1.505
'0:05.630',-1.565
'0:05.632',-1.695
'0:05.634',-1.600
'0:05.636',-1.590
'0:05.638',-1.460
'0:05.640',-1.350
'0:05.642',-1.400
'0:05.644',-1.465
'0:05.646',-1.550
'0:05.648',-1.480
'0:05.650',-1.650
'0:05.652',-1.620
'0:05.654',-1.570
'0:05.656',-1.500
'0:05.658',-1.465
'0:05.660',-1.345
'0:05.662',-1.285
'0:05.664',-1.435
'0:05.666',-1.505
'0:05.668',-1.620
'0:05.670',-1.720
'0:05.672',-1.765
'0:05.674',-1.660
'0:05.676',-1.575
'0:05.678',-1.415
'0:05.680',-1.295
'0:05.682',-1.395
'0:05.684',-1.440
'0:05.686',-1.460
'0:05.688',-1.520
'0:05.690',-1.655
'0:05.692',-1.615
'0:05.694',-1.570
'0:05.696',-1.470
'0:05.698',-1.535
'0:05.700',-1.380
'0:05.702',-1.405
'0:05.704',-1.505
'0:05.706',-1.530
'0:05.708',-1.580
'0:05.710',-1.655
'0:05.712',-1.605
'0:05.714',-1.555
'0:05.716',-1.500
'0:05.718',-1.370
'0:05.720',-1.370
'0:05.722',-1.360
'0:05.724',-1.480
'0:05.726',-1.605
'0:05.728',-1.580
'0:05.730',-1.635
'0:05.732',-1.585
'0:05.734',-1.540
'0:05.736',-1.500
'0:05.738',-1.610
'0:05.740',-1.390
'0:05.742',-1.365
'0:05.744',-1.420
'0:05.746',-1.475
'0:05.748',-1.595
'0:05.750',-1.570
'0:05.752',-1.625
'0:05.754',-1.540
'0:05.756',-1.555
'0:05.758',-1.510
'0:05.760',-1.415
'0:05.762',-1.315
'0:05.764',-1.400
'0:05.766',-1.480
'0:05.768',-1.580
'0:05.770',-1.635
'0:05.772',-1.575
'0:05.774',-1.530
'0:05.776',-1.465
'0:05.778',-1.450
'0:05.780',-1.210
'0:05.782',-1.345
'0:05.784',-1.380
'0:05.786',-1.445
'0:05.788',-1.415
'0:05.790',-1.470
'0:05.792',-1.550
'0:05.794',-1.350
'0:05.796',-1.520
'0:05.798',-1.275
'0:05.800',-1.315
'0:05.802',-1.340
'0:05.804',-1.490
'0:05.806',-1.525
'0:05.808',-1.570
'0:05.810',-1.550
'0:05.812',-1.540
'0:05.814',-1.410
'0:05.816',-1.395
'0:05.818',-1.455
'0:05.820',-1.315
'0:05.822',-1.450
'0:05.824',-1.420
'0:05.826',-1.460
'0:05.828',-1.650
'0:05.830',-1.725
'0:05.832',-1.675
'0:05.834',-1.545
'0:05.836',-1.560
'0:05.838',-1.390
'0:05.840',-1.295
'0:05.842',-1.415
'0:05.844',-1.455
'0:05.846',-1.570
'0:05.848',-1.655
'0:05.850',-1.680
'0:05.852',-1.670
'0:05.854',-1.560
'0:05.856',-1.525
'0:05.858',-1.360
'0:05.860',-1.320
'0:05.862',-1.415
'0:05.864',-1.510
'0:05.866',-1.570
'0:05.868',-1.835
'0:05.870',-1.750
'0:05.872',-1.675
'0:05.874',-1.655
'0:05.876',-1.590
'0:05.878',-1.505
'0:05.880',-1.455
'0:05.882',-1.400
'0:05.884',-1.420
'0:05.886',-1.410
'0:05.888',-1.340
'0:05.890',-1.100
'0:05.892',-1.070
'0:05.894',-0.935
'0:05.896',-0.760
'0:05.898',-0.555
'0:05.900',-0.445
'0:05.902',-0.500
'0:05.904',-0.485
'0:05.906',-0.525
'0:05.908',-0.605
'0:05.910',-0.625
'0:05.912',-0.705
'0:05.914',-0.795
'0:05.916',-1.105
'0:05.918',-1.085
'0:05.920',-1.295
'0:05.922',-1.280
'0:05.924',-1.320
'0:05.926',-1.350
'0:05.928',-1.530
'0:05.930',-1.410
'0:05.932',-1.395
'0:05.934',-1.405
'0:05.936',-1.390
'0:05.938',-1.310
'0:05.940',-1.395
'0:05.942',-1.550
'0:05.944',-1.495
'0:05.946',-1.515
'0:05.948',-1.710
'0:05.950',-1.720
'0:05.952',-1.605
'0:05.954',-1.565
'0:05.956',-1.490
'0:05.958',-1.410
'0:05.960',-1.355
'0:05.962',-1.465
'0:05.964',-1.465
'0:05.966',-1.485
'0:05.968',-1.605
'0:05.970',-1.575
'0:05.972',-1.675
'0:05.974',-1.595
'0:05.976',-1.605
'0:05.978',-1.435
'0:05.980',-1.460
'0:05.982',-1.440
'0:05.984',-1.645
'0:05.986',-1.575
'0:05.988',-1.645
'0:05.990',-1.675
'0:05.992',-1.505
'0:05.994',-1.430
'0:05.996',-1.445
'0:05.998',-1.365
'0:06.000',-1.340
'0:06.002',-1.505
'0:06.004',-1.545
'0:06.006',-1.570
'0:06.008',-1.640
'0:06.010',-1.640
'0:06.012',-1.535
'0:06.014',-1.475
'0:06.016',-1.540
'0:06.018',-1.350
'0:06.020',-1.330
'0:06.022',-1.365
'0:06.024',-1.465
'0:06.026',-1.600
'0:06.028',-1.705
'0:06.030',-1.640
'0:06.032',-1.555
'0:06.034',-1.500
'0:06.036',-1.395
'0:06.038',-1.345
'0:06.040',-1.285
'0:06.042',-1.490
'0:06.044',-1.545
'0:06.046',-1.435
'0:06.048',-1.495
'0:06.050',-1.535
'0:06.052',-1.520
'0:06.054',-1.435
'0:06.056',-1.435
'0:06.058',-1.350
'0:06.060',-1.405
'0:06.062',-1.525
'0:06.064',-1.465
'0:06.066',-1.510
'0:06.068',-1.540
'0:06.070',-1.420
'0:06.072',-1.440
'0:06.074',-1.370
'0:06.076',-1.410
'0:06.078',-1.230
'0:06.080',-1.240
'0:06.082',-1.235
'0:06.084',-1.420
'0:06.086',-1.500
'0:06.088',-1.530
'0:06.090',-1.540
'0:06.092',-1.450
'0:06.094',-1.370
'0:06.096',-1.230
'0:06.098',-1.220
'0:06.100',-1.260
'0:06.102',-1.315
'0:06.104',-1.315
'0:06.106',-1.355
'0:06.108',-1.425
'0:06.110',-1.355
'0:06.112',-1.250
'0:06.114',-1.210
'0:06.116',-1.165
'0:06.118',-1.130
'0:06.120',-1.165
'0:06.122',-1.315
'0:06.124',-1.265
'0:06.126',-1.305
'0:06.128',-1.295
'0:06.130',-1.405
'0:06.132',-1.350
'0:06.134',-1.185
'0:06.136',-1.030
'0:06.138',-1.120
'0:06.140',-1.110
'0:06.142',-1.135
'0:06.144',-1.270
'0:06.146',-1.370
'0:06.148',-1.355
'0:06.150',-1.375
'0:06.152',-1.295
'0:06.154',-1.250
'0:06.156',-1.145
'0:06.158',-1.150
'0:06.160',-1.235
'0:06.162',-1.255
'0:06.164',-1.350
'0:06.166',-1.425
'0:06.168',-1.445
'0:06.170',-1.410
'0:06.172',-1.365
'0:06.174',-1.270
'0:06.176',-1.140
'0:06.178',-1.195
'0:06.180',-1.300
'0:06.182',-1.400
'0:06.184',-1.415
'0:06.186',-1.560
'0:06.188',-1.560
'0:06.190',-1.535
'0:06.192',-1.525
'0:06.194',-1.430
'0:06.196',-1.295
'0:06.198',-1.245
'0:06.200',-1.345
'0:06.202',-1.505
'0:06.204',-1.505
'0:06.206',-1.625
'0:06.208',-1.595
'0:06.210',-1.575
'0:06.212',-1.470
'0:06.214',-1.455
'0:06.216',-1.290
'0:06.218',-1.395
'0:06.220',-1.450
'0:06.222',-1.405
'0:06.224',-1.490
'0:06.226',-1.710
'0:06.228',-1.650
'0:06.230',-1.500
'0:06.232',-1.510
'0:06.234',-1.455
'0:06.236',-1.320
'0:06.238',-1.365
'0:06.240',-1.500
'0:06.242',-1.480
'0:06.244',-1.585
'0:06.246',-1.615
'0:06.248',-1.590
'0:06.250',-1.500
'0:06.252',-1.445
'0:06.254',-1.455
'0:06.256',-1.370
'0:06.258',-1.305
'0:06.260',-1.295
'0:06.262',-1.520
'0:06.264',-1.415
'0:06.266',-1.575
'0:06.268',-1.645
'0:06.270',-1.585
'0:06.272',-1.490
'0:06.274',-1.440
'0:06.276',-1.390
'0:06.278',-1.360
'0:06.280',-1.495
'0:06.282',-1.535
'0:06.284',-1.485
'0:06.286',-1.640
'0:06.288',-1.555
'0:06.290',-1.590
'0:06.292',-1.530
'0:06.294',-1.360
'0:06.296',-1.320
'0:06.298',-1.300
'0:06.300',-1.360
'0:06.302',-1.415
'0:06.304',-1.515
'0:06.306',-1.670
'0:06.308',-1.595
'0:06.310',-1.550
'0:06.312',-1.525
'0:06.314',-1.545
'0:06.316',-1.280
'0:06.318',-1.315
'0:06.320',-1.360
'0:06.322',-1.430
'0:06.324',-1.505
'0:06.326',-1.640
'0:06.328',-1.725
'0:06.330',-1.610
'0:06.332',-1.510
'0:06.334',-1.385
'0:06.336',-1.350
'0:06.338',-1.420
'0:06.340',-1.430
'0:06.342',-1.450
'0:06.344',-1.565
'0:06.346',-1.650
'0:06.348',-1.630
'0:06.350',-1.515
'0:06.352',-1.415
'0:06.354',-1.415
'0:06.356',-1.385
'0:06.358',-1.400
'0:06.360',-1.480
'0:06.362',-1.580
'0:06.364',-1.615
'0:06.366',-1.650
'0:06.368',-1.515
'0:06.370',-1.550
'0:06.372',-1.455
'0:06.374',-1.395
'0:06.376',-1.350
'0:06.378',-1.415
'0:06.380',-1.455
'0:06.382',-1.470
'0:06.384',-1.605
'0:06.386',-1.595
'0:06.388',-1.555
'0:06.390',-1.515
'0:06.392',-1.535
'0:06.394',-1.395
'0:06.396',-1.390
'0:06.398',-1.400
'0:06.400',-1.380
'0:06.402',-1.445
'0:06.404',-1.580
'0:06.406',-1.640
'0:06.408',-1.635
'0:06.410',-1.625
'0:06.412',-1.445
'0:06.414',-1.330
'0:06.416',-1.400
'0:06.418',-1.360
'0:06.420',-1.500
'0:06.422',-1.585
'0:06.424',-1.715
'0:06.426',-1.670
'0:06.428',-1.625
'0:06.430',-1.415
'0:06.432',-1.400
'0:06.434',-1.305
'0:06.436',-1.375
'0:06.438',-1.400
'0:06.440',-1.520
'0:06.442',-1.520
'0:06.444',-1.755
'0:06.446',-1.555
'0:06.448',-1.560
'0:06.450',-1.540
'0:06.452',-1.530
'0:06.454',-1.405
'0:06.456',-1.350
'0:06.458',-1.360
'0:06.460',-1.465
'0:06.462',-1.440
'0:06.464',-1.445
'0:06.466',-1.495
'0:06.468',-1.515
'0:06.470',-1.345
'0:06.472',-1.255
'0:06.474',-1.240
'0:06.476',-1.260
'0:06.478',-1.230
'0:06.480',-1.375
'0:06.482',-1.540
'0:06.484',-1.620
'0:06.486',-1.475
'0:06.488',-1.430
'0:06.490',-1.395
'0:06.492',-1.380
'0:06.494',-1.360
'0:06.496',-1.365
'0:06.498',-1.435
'0:06.500',-1.415
'0:06.502',-1.550
'0:06.504',-1.755
'0:06.506',-1.710
'0:06.508',-1.605
'0:06.510',-1.525
'0:06.512',-1.450
'0:06.514',-1.305
'0:06.516',-1.375
'0:06.518',-1.415
'0:06.520',-1.595
'0:06.522',-1.520
'0:06.524',-1.610
'0:06.526',-1.595
'0:06.528',-1.635
'0:06.530',-1.505
'0:06.532',-1.470
'0:06.534',-1.380
'0:06.536',-1.470
'0:06.538',-1.370
'0:06.540',-1.495
'0:06.542',-1.505
'0:06.544',-1.580
'0:06.546',-1.700
'0:06.548',-1.680
'0:06.550',-1.610
'0:06.552',-1.630
'0:06.554',-1.410
'0:06.556',-1.455
'0:06.558',-1.540
'0:06.560',-1.630
'0:06.562',-1.500
'0:06.564',-1.535
'0:06.566',-1.455
'0:06.568',-1.365
'0:06.570',-1.080
'0:06.572',-0.900
'0:06.574',-0.800
'0:06.576',-0.710
'0:06.578',-0.675
'0:06.580',-0.600
'0:06.582',-0.650
'0:06.584',-0.810
'0:06.586',-0.735
'0:06.588',-0.575
'0:06.590',-0.535
'0:06.592',-0.475
'0:06.594',-0.530
'0:06.596',-0.865
'0:06.598',-1.110
'0:06.600',-1.280
'0:06.602',-1.375
'0:06.604',-1.520
'0:06.606',-1.515
'0:06.608',-1.480
'0:06.610',-1.440
'0:06.612',-1.340
'0:06.614',-1.190
'0:06.616',-1.380
'0:06.618',-1.365
'0:06.620',-1.435
'0:06.622',-1.585
'0:06.624',-1.585
'0:06.626',-1.585
'0:06.628',-1.590
'0:06.630',-1.555
'0:06.632',-1.490
'0:06.634',-1.460
'0:06.636',-1.435
'0:06.638',-1.410
'0:06.640',-1.575
'0:06.642',-1.525
'0:06.644',-1.600
'0:06.646',-1.670
'0:06.648',-1.580
'0:06.650',-1.435
'0:06.652',-1.460
'0:06.654',-1.415
'0:06.656',-1.400
'0:06.658',-1.460
'0:06.660',-1.645
'0:06.662',-1.640
'0:06.664',-1.680
'0:06.666',-1.645
'0:06.668',-1.620
'0:06.670',-1.555
'0:06.672',-1.420
'0:06.674',-1.380
'0:06.676',-1.360
'0:06.678',-1.410
'0:06.680',-1.520
'0:06.682',-1.540
'0:06.684',-1.705
'0:06.686',-1.735
'0:06.688',-1.565
'0:06.690',-1.525
'0:06.692',-1.420
'0:06.694',-1.310
'0:06.696',-1.375
'0:06.698',-1.475
'0:06.700',-1.520
'0:06.702',-1.635
'0:06.704',-1.715
'0:06.706',-1.545
'0:06.708',-1.555
'0:06.710',-1.505
'0:06.712',-1.325
'0:06.714',-1.315
'0:06.716',-1.310
'0:06.718',-1.560
'0:06.720',-1.555
'0:06.722',-1.615
'0:06.724',-1.575
'0:06.726',-1.585
'0:06.728',-1.430
'0:06.730',-1.455
'0:06.732',-1.310
'0:06.734',-1.270
'0:06.736',-1.390
'0:06.738',-1.295
'0:06.740',-1.560
'0:06.742',-1.615
'0:06.744',-1.575
'0:06.746',-1.520
'0:06.748',-1.535
'0:06.750',-1.380
'0:06.752',-1.315
'0:06.754',-1.295
'0:06.756',-1.365
'0:06.758',-1.420
'0:06.760',-1.380
'0:06.762',-1.465
'0:06.764',-1.465
'0:06.766',-1.550
'0:06.768',-1.370
'0:06.770',-1.290
'0:06.772',-1.190
'0:06.774',-1.240
'0:06.776',-1.250
'0:06.778',-1.305
'0:06.780',-1.440
'0:06.782',-1.590
'0:06.784',-1.415
'0:06.786',-1.375
'0:06.788',-1.285
'0:06.790',-1.285
'0:06.792',-1.110
'0:06.794',-1.115
'0:06.796',-1.100
'0:06.798',-1.170
'0:06.800',-1.270
'0:06.802',-1.365
'0:06.804',-1.290
'0:06.806',-1.410
'0:06.808',-1.280
'0:06.810',-1.170
'0:06.812',-1.070
'0:06.814',-1.105
'0:06.816',-1.150
'0:06.818',-1.280
'0:06.820',-1.250
'0:06.822',-1.460
'0:06.824',-1.430
'0:06.826',-1.270
'0:06.828',-1.180
'0:06.830',-1.210
'0:06.832',-0.990
'0:06.834',-1.135
'0:06.836',-1.120
'0:06.838',-1.200
'0:06.840',-1.315
'0:06.842',-1.390
'0:06.844',-1.425
'0:06.846',-1.420
'0:06.848',-1.420
'0:06.850',-1.235
'0:06.852',-1.115
'0:06.854',-1.250
'0:06.856',-1.305
'0:06.858',-1.345
'0:06.860',-1.315
'0:06.862',-1.470
'0:06.864',-1.595
'0:06.866',-1.530
'0:06.868',-1.425
'0:06.870',-1.385
'0:06.872',-1.285
'0:06.874',-1.225
'0:06.876',-1.440
'0:06.878',-1.485
'0:06.880',-1.505
'0:06.882',-1.590
'0:06.884',-1.475
'0:06.886',-1.540
'0:06.888',-1.445
'0:06.890',-1.440
'0:06.892',-1.310
'0:06.894',-1.350
'0:06.896',-1.330
'0:06.898',-1.435
'0:06.900',-1.505
'0:06.902',-1.565
'0:06.904',-1.585
'0:06.906',-1.535
'0:06.908',-1.530
'0:06.910',-1.445
'0:06.912',-1.335
'0:06.914',-1.405
'0:06.916',-1.420
'0:06.918',-1.420
'0:06.920',-1.495
'0:06.922',-1.580
'0:06.924',-1.645
'0:06.926',-1.460
'0:06.928',-1.440
'0:06.930',-1.415
'0:06.932',-1.255
'0:06.934',-1.290
'0:06.936',-1.365
'0:06.938',-1.560
'0:06.940',-1.590
'0:06.942',-1.525
'0:06.944',-1.545
'0:06.946',-1.530
'0:06.948',-1.510
'0:06.950',-1.260
'0:06.952',-1.305
'0:06.954',-1.375
'0:06.956',-1.330
'0:06.958',-1.500
'0:06.960',-1.570
'0:06.962',-1.650
'0:06.964',-1.515
'0:06.966',-1.470
'0:06.968',-1.560
'0:06.970',-1.385
'0:06.972',-1.295
'0:06.974',-1.395
'0:06.976',-1.290
'0:06.978',-1.585
'0:06.980',-1.540
'0:06.982',-1.605
'0:06.984',-1.490
'0:06.986',-1.490
'0:06.988',-1.415
'0:06.990',-1.415
'0:06.992',-1.285
'0:06.994',-1.350
'0:06.996',-1.345
'0:06.998',-1.425
'0:07.000',-1.655
'0:07.002',-1.645
'0:07.004',-1.620
'0:07.006',-1.535
'0:07.008',-1.440
'0:07.010',-1.400
'0:07.012',-1.325
'0:07.014',-1.325
'0:07.016',-1.345
'0:07.018',-1.455
'0:07.020',-1.640
'0:07.022',-1.665
'0:07.024',-1.530
'0:07.026',-1.565
'0:07.028',-1.470
'0:07.030',-1.280
'0:07.032',-1.280
'0:07.034',-1.355
'0:07.036',-1.340
'0:07.038',-1.460
'0:07.040',-1.570
'0:07.042',-1.655
'0:07.044',-1.550
'0:07.046',-1.460
'0:07.048',-1.420
'0:07.050',-1.305
'0:07.052',-1.330
'0:07.054',-1.430
'0:07.056',-1.435
'0:07.058',-1.610
'0:07.060',-1.725
'0:07.062',-1.630
'0:07.064',-1.515
'0:07.066',-1.400
'0:07.068',-1.325
'0:07.070',-1.325
'0:07.072',-1.310
'0:07.074',-1.330
'0:07.076',-1.365
'0:07.078',-1.500
'0:07.080',-1.710
'0:07.082',-1.580
'0:07.084',-1.495
'0:07.086',-1.430
'0:07.088',-1.325
'0:07.090',-1.400
'0:07.092',-1.390
'0:07.094',-1.425
'0:07.096',-1.445
'0:07.098',-1.490
'0:07.100',-1.570
'0:07.102',-1.625
'0:07.104',-1.500
'0:07.106',-1.415
'0:07.108',-1.455
'0:07.110',-1.325
'0:07.112',-1.375
'0:07.114',-1.415
'0:07.116',-1.470
'0:07.118',-1.525
'0:07.120',-1.540
'0:07.122',-1.550
'0:07.124',-1.560
'0:07.126',-1.440
'0:07.128',-1.405
'0:07.130',-1.235
'0:07.132',-1.330
'0:07.134',-1.305
'0:07.136',-1.455
'0:07.138',-1.485
'0:07.140',-1.565
'0:07.142',-1.510
'0:07.144',-1.485
'0:07.146',-1.470
'0:07.148',-1.260
'0:07.150',-1.225
'0:07.152',-1.215
'0:07.154',-1.315
'0:07.156',-1.355
'0:07.158',-1.515
'0:07.160',-1.490
'0:07.162',-1.400
'0:07.164',-1.395
'0:07.166',-1.320
'0:07.168',-1.290
'0:07.170',-1.195
'0:07.172',-1.215
'0:07.174',-1.235
'0:07.176',-1.345
'0:07.178',-1.525
'0:07.180',-1.540
'0:07.182',-1.540
'0:07.184',-1.485
'0:07.186',-1.445
'0:07.188',-1.505
'0:07.190',-1.285
'0:07.192',-1.270
'0:07.194',-1.405
'0:07.196',-1.475
'0:07.198',-1.495
'0:07.200',-1.660
'0:07.202',-1.550
'0:07.204',-1.560
'0:07.206',-1.410
'0:07.208',-1.410
'0:07.210',-1.235
'0:07.212',-1.410
'0:07.214',-1.430
'0:07.216',-1.520
'0:07.218',-1.395
'0:07.220',-1.520
'0:07.222',-1.605
'0:07.224',-1.570
'0:07.226',-1.510
'0:07.228',-1.450
'0:07.230',-1.310
'0:07.232',-1.390
'0:07.234',-1.435
'0:07.236',-1.580
'0:07.238',-1.655
'0:07.240',-1.750
'0:07.242',-1.810
'0:07.244',-1.480
'0:07.246',-1.445
'0:07.248',-1.430
'0:07.250',-1.290
'0:07.252',-1.275
'0:07.254',-1.275
'0:07.256',-1.250
'0:07.258',-1.095
'0:07.260',-1.055
'0:07.262',-0.980
'0:07.264',-0.785
'0:07.266',-0.600
'0:07.268',-0.410
'0:07.270',-0.360
'0:07.272',-0.465
'0:07.274',-0.470
'0:07.276',-0.465
'0:07.278',-0.600
'0:07.280',-0.765
'0:07.282',-0.875
'0:07.284',-1.095
'0:07.286',-1.060
'0:07.288',-1.220
'0:07.290',-1.140
'0:07.292',-1.160
'0:07.294',-1.235
'0:07.296',-1.350
'0:07.298',-1.435
'0:07.300',-1.495
'0:07.302',-1.450
'0:07.304',-1.450
'0:07.306',-1.435
'0:07.308',-1.355
'0:07.310',-1.330
'0:07.312',-1.425
'0:07.314',-1.470
'0:07.316',-1.450
'0:07.318',-1.625
'0:07.320',-1.595
'0:07.322',-1.540
'0:07.324',-1.560
'0:07.326',-1.445
'0:07.328',-1.380
'0:07.330',-1.315
'0:07.332',-1.335
'0:07.334',-1.475
'0:07.336',-1.560
'0:07.338',-1.580
'0:07.340',-1.540
'0:07.342',-1.545
'0:07.344',-1.550
'0:07.346',-1.515
'0:07.348',-1.325
'0:07.350',-1.330
'0:07.352',-1.390
'0:07.354',-1.505
'0:07.356',-1.485
'0:07.358',-1.570
'0:07.360',-1.545
'0:07.362',-1.515
'0:07.364',-1.405
'0:07.366',-1.440
'0:07.368',-1.320
'0:07.370',-1.435
'0:07.372',-1.335
'0:07.374',-1.510
'0:07.376',-1.485
'0:07.378',-1.600
'0:07.380',-1.595
'0:07.382',-1.510
'0:07.384',-1.470
'0:07.386',-1.380
'0:07.388',-1.305
'0:07.390',-1.350
'0:07.392',-1.440
'0:07.394',-1.380
'0:07.396',-1.455
'0:07.398',-1.575
'0:07.400',-1.570
'0:07.402',-1.530
'0:07.404',-1.405
'0:07.406',-1.365
'0:07.408',-1.250
'0:07.410',-1.405
'0:07.412',-1.300
'0:07.414',-1.370
'0:07.416',-1.455
'0:07.418',-1.485
'0:07.420',-1.500
'0:07.422',-1.520
'0:07.424',-1.420
'0:07.426',-1.385
'0:07.428',-1.255
'0:07.430',-1.225
'0:07.432',-1.245
'0:07.434',-1.360
'0:07.436',-1.385
'0:07.438',-1.495
'0:07.440',-1.405
'0:07.442',-1.420
'0:07.444',-1.360
'0:07.446',-1.305
'0:07.448',-1.245
'0:07.450',-1.170
'0:07.452',-1.215
'0:07.454',-1.295
'0:07.456',-1.420
'0:07.458',-1.415
'0:07.460',-1.435
'0:07.462',-1.340
'0:07.464',-1.300
'0:07.466',-1.170
'0:07.468',-1.100
'0:07.470',-1.100
'0:07.472',-1.255
'0:07.474',-1.195
'0:07.476',-1.245
'0:07.478',-1.370
'0:07.480',-1.425
'0:07.482',-1.270
'0:07.484',-1.190
'0:07.486',-1.140
'0:07.488',-1.025
'0:07.490',-1.000
'0:07.492',-1.175
'0:07.494',-1.185
'0:07.496',-1.295
'0:07.498',-1.300
'0:07.500',-1.315
'0:07.502',-1.235
'0:07.504',-1.095
'0:07.506',-1.100
'0:07.508',-1.055
'0:07.510',-1.040
'0:07.512',-1.135
'0:07.514',-1.175
'0:07.516',-1.160
'0:07.518',-1.390
'0:07.520',-1.340
'0:07.522',-1.250
'0:07.524',-1.160
'0:07.526',-1.095
'0:07.528',-1.010
'0:07.530',-0.985
'0:07.532',-1.065
'0:07.534',-1.155
'0:07.536',-1.285
'0:07.538',-1.515
'0:07.540',-1.365
'0:07.542',-1.315
'0:07.544',-1.315
'0:07.546',-1.280
'0:07.548',-1.255
'0:07.550',-1.270
'0:07.552',-1.185
'0:07.554',-1.395
'0:07.556',-1.530
'0:07.558',-1.470
'0:07.560',-1.480
'0:07.562',-1.395
'0:07.564',-1.370
'0:07.566',-1.285
'0:07.568',-1.285
'0:07.570',-1.200
'0:07.572',-1.375
'0:07.574',-1.470
'0:07.576',-1.505
'0:07.578',-1.645
'0:07.580',-1.515
'0:07.582',-1.465
'0:07.584',-1.355
'0:07.586',-1.240
'0:07.588',-1.255
'0:07.590',-1.360
'0:07.592',-1.390
'0:07.594',-1.410
'0:07.596',-1.525
'0:07.598',-1.600
'0:07.600',-1.485
'0:07.602',-1.405
'0:07.604',-1.330
'0:07.606',-1.265
'0:07.608',-1.290
'0:07.610',-1.350
'0:07.612',-1.330
'0:07.614',-1.385
'0:07.616',-1.500
'0:07.618',-1.525
'0:07.620',-1.530
'0:07.622',-1.520
'0:07.624',-1.400
'0:07.626',-1.315
'0:07.628',-1.310
'0:07.630',-1.385
'0:07.632',-1.415
'0:07.634',-1.435
'0:07.636',-1.530
'0:07.638',-1.500
'0:07.640',-1.475
'0:07.642',-1.455
'0:07.644',-1.315
'0:07.646',-1.315
'0:07.648',-1.330
'0:07.650',-1.335
'0:07.652',-1.335
'0:07.654',-1.480
'0:07.656',-1.595
'0:07.658',-1.625
'0:07.660',-1.450
'0:07.662',-1.360
'0:07.664',-1.400
'0:07.666',-1.195
'0:07.668',-1.300
'0:07.670',-1.285
'0:07.672',-1.380
'0:07.674',-1.470
'0:07.676',-1.595
'0:07.678',-1.525
'0:07.680',-1.480
'0:07.682',-1.470
'0:07.684',-1.435
'0:07.686',-1.330
'0:07.688',-1.250
'0:07.690',-1.265
'0:07.692',-1.295
'0:07.694',-1.500
'0:07.696',-1.600
'0:07.698',-1.525
'0:07.700',-1.515
'0:07.702',-1.455
'0:07.704',-1.375
'0:07.706',-1.160
'0:07.708',-1.290
'0:07.710',-1.250
'0:07.712',-1.430
'0:07.714',-1.585
'0:07.716',-1.490
'0:07.718',-1.560
'0:07.720',-1.460
'0:07.722',-1.435
'0:07.724',-1.310
'0:07.726',-1.365
'0:07.728',-1.265
'0:07.730',-1.360
'0:07.732',-1.395
'0:07.734',-1.350
'0:07.736',-1.540
'0:07.738',-1.665
'0:07.740',-1.500
'0:07.742',-1.420
'0:07.744',-1.480
'0:07.746',-1.250
'0:07.748',-1.210
'0:07.750',-1.310
'0:07.752',-1.400
'0:07.754',-1.415
'0:07.756',-1.525
'0:07.758',-1.550
'0:07.760',-1.530
'0:07.762',-1.425
'0:07.764',-1.385
'0:07.766',-1.255
'0:07.768',-1.295
'0:07.770',-1.380
'0:07.772',-1.470
'0:07.774',-1.450
'0:07.776',-1.575
'0:07.778',-1.485
'0:07.780',-1.470
'0:07.782',-1.355
'0:07.784',-1.310
'0:07.786',-1.215
'0:07.788',-1.390
'0:07.790',-1.400
'0:07.792',-1.360
'0:07.794',-1.425
'0:07.796',-1.540
'0:07.798',-1.545
'0:07.800',-1.435
'0:07.802',-1.365
'0:07.804',-1.315
'0:07.806',-1.265
'0:07.808',-1.270
'0:07.810',-1.385
'0:07.812',-1.320
'0:07.814',-1.405
'0:07.816',-1.475
'0:07.818',-1.500
'0:07.820',-1.395
'0:07.822',-1.265
'0:07.824',-1.285
'0:07.826',-1.225
'0:07.828',-1.235
'0:07.830',-1.195
'0:07.832',-1.305
'0:07.834',-1.340
'0:07.836',-1.515
'0:07.838',-1.370
'0:07.840',-1.380
'0:07.842',-1.280
'0:07.844',-1.320
'0:07.846',-1.215
'0:07.848',-1.180
'0:07.850',-1.315
'0:07.852',-1.355
'0:07.854',-1.540
'0:07.856',-1.560
'0:07.858',-1.520
'0:07.860',-1.335
'0:07.862',-1.280
'0:07.864',-1.225
'0:07.866',-1.260
'0:07.868',-1.305
'0:07.870',-1.410
'0:07.872',-1.440
'0:07.874',-1.520
'0:07.876',-1.535
'0:07.878',-1.455
'0:07.880',-1.520
'0:07.882',-1.435
'0:07.884',-1.395
'0:07.886',-1.275
'0:07.888',-1.330
'0:07.890',-1.345
'0:07.892',-1.435
'0:07.894',-1.500
'0:07.896',-1.565
'0:07.898',-1.485
'0:07.900',-1.455
'0:07.902',-1.395
'0:07.904',-1.270
'0:07.906',-1.375
'0:07.908',-1.410
'0:07.910',-1.440
'0:07.912',-1.565
'0:07.914',-1.700
'0:07.916',-1.725
'0:07.918',-1.615
'0:07.920',-1.465
'0:07.922',-1.420
'0:07.924',-1.155
'0:07.926',-1.025
'0:07.928',-0.975
'0:07.930',-0.950
'0:07.932',-0.895
'0:07.934',-0.865
'0:07.936',-0.830
'0:07.938',-0.740
'0:07.940',-0.610
'0:07.942',-0.570
'0:07.944',-0.460
'0:07.946',-0.420
'0:07.948',-0.440
'0:07.950',-0.445
'0:07.952',-0.615
'0:07.954',-0.950
'0:07.956',-1.245
'0:07.958',-1.330
'0:07.960',-1.280
'0:07.962',-1.270
'0:07.964',-1.205
'0:07.966',-1.220
'0:07.968',-1.250
'0:07.970',-1.320
'0:07.972',-1.360
'0:07.974',-1.460
'0:07.976',-1.500
'0:07.978',-1.485
'0:07.980',-1.420
'0:07.982',-1.395
'0:07.984',-1.230
'0:07.986',-1.225
'0:07.988',-1.320
'0:07.990',-1.415
'0:07.992',-1.420
'0:07.994',-1.695
'0:07.996',-1.595
'0:07.998',-1.490
'0:08.000',-1.450
'0:08.002',-1.395
'0:08.004',-1.240
'0:08.006',-1.260
'0:08.008',-1.280
'0:08.010',-1.345
'0:08.012',-1.465
'0:08.014',-1.555
'0:08.016',-1.590
'0:08.018',-1.440
'0:08.020',-1.450
'0:08.022',-1.485
'0:08.024',-1.225
'0:08.026',-1.295
'0:08.028',-1.340
'0:08.030',-1.485
'0:08.032',-1.500
'0:08.034',-1.500
'0:08.036',-1.440
'0:08.038',-1.465
'0:08.040',-1.325
'0:08.042',-1.370
'0:08.044',-1.240
'0:08.046',-1.330
'0:08.048',-1.300
'0:08.050',-1.345
'0:08.052',-1.385
'0:08.054',-1.625
'0:08.056',-1.500
'0:08.058',-1.470
'0:08.060',-1.380
'0:08.062',-1.335
'0:08.064',-1.235
'0:08.066',-1.280
'0:08.068',-1.410
'0:08.070',-1.400
'0:08.072',-1.410
'0:08.074',-1.580
'0:08.076',-1.440
'0:08.078',-1.375
'0:08.080',-1.310
'0:08.082',-1.275
'0:08.084',-1.165
'0:08.086',-1.110
'0:08.088',-1.175
'0:08.090',-1.320
'0:08.092',-1.470
'0:08.094',-1.470
'0:08.096',-1.415
'0:08.098',-1.520
'0:08.100',-1.380
'0:08.102',-1.275
'0:08.104',-1.085
'0:08.106',-1.175
'0:08.108',-1.275
'0:08.110',-1.325
'0:08.112',-1.385
'0:08.114',-1.430
'0:08.116',-1.335
'0:08.118',-1.390
'0:08.120',-1.290
'0:08.122',-1.085
'0:08.124',-1.135
'0:08.126',-1.145
'0:08.128',-1.135
'0:08.130',-1.280
'0:08.132',-1.335
'0:08.134',-1.430
'0:08.136',-1.335
'0:08.138',-1.220
'0:08.140',-1.130
'0:08.142',-1.075
'0:08.144',-1.025
'0:08.146',-1.070
'0:08.148',-1.085
'0:08.150',-1.165
'0:08.152',-1.285
'0:08.154',-1.275
'0:08.156',-1.190
'0:08.158',-1.285
'0:08.160',-1.085
'0:08.162',-1.010
'0:08.164',-1.030
'0:08.166',-1.015
'0:08.168',-1.085
'0:08.170',-1.145
'0:08.172',-1.210
'0:08.174',-1.195
'0:08.176',-1.130
'0:08.178',-1.145
'0:08.180',-1.035
'0:08.182',-0.985
'0:08.184',-0.875
'0:08.186',-0.975
'0:08.188',-1.180
'0:08.190',-1.130
'0:08.192',-1.305
'0:08.194',-1.400
'0:08.196',-1.345
'0:08.198',-1.120
'0:08.200',-1.085
'0:08.202',-1.025
'0:08.204',-1.015
'0:08.206',-1.050
'0:08.208',-1.110
'0:08.210',-1.165
'0:08.212',-1.360
'0:08.214',-1.360
'0:08.216',-1.365
'0:08.218',-1.390
'0:08.220',-1.260
'0:08.222',-1.100
'0:08.224',-1.180
'0:08.226',-1.235
'0:08.228',-1.325
'0:08.230',-1.300
'0:08.232',-1.495
'0:08.234',-1.490
'0:08.236',-1.470
'0:08.238',-1.310
'0:08.240',-1.315
'0:08.242',-1.180
'0:08.244',-1.270
'0:08.246',-1.300
'0:08.248',-1.300
'0:08.250',-1.405
'0:08.252',-1.590
'0:08.254',-1.470
'0:08.256',-1.395
'0:08.258',-1.360
'0:08.260',-1.395
'0:08.262',-1.315
'0:08.264',-1.200
'0:08.266',-1.275
'0:08.268',-1.325
'0:08.270',-1.405
'0:08.272',-1.475
'0:08.274',-1.485
'0:08.276',-1.480
'0:08.278',-1.370
'0:08.280',-1.340
'0:08.282',-1.275
'0:08.284',-1.245
'0:08.286',-1.390
'0:08.288',-1.370
'0:08.290',-1.425
'0:08.292',-1.715
'0:08.294',-1.565
'0:08.296',-1.350
'0:08.298',-1.340
'0:08.300',-1.320
'0:08.302',-1.210
'0:08.304',-1.180
'0:08.306',-1.225
'0:08.308',-1.415
'0:08.310',-1.435
'0:08.312',-1.500
'0:08.314',-1.460
'0:08.316',-1.440
'0:08.318',-1.410
'0:08.320',-1.345
'0:08.322',-1.285
'0:08.324',-1.225
'0:08.326',-1.355
'0:08.328',-1.330
'0:08.330',-1.395
'0:08.332',-1.515
'0:08.334',-1.510
'0:08.336',-1.380
'0:08.338',-1.300
'0:08.340',-1.270
'0:08.342',-1.155
'0:08.344',-1.155
'0:08.346',-1.250
'0:08.348',-1.400
'0:08.350',-1.410
'0:08.352',-1.465
'0:08.354',-1.515
'0:08.356',-1.490
'0:08.358',-1.370
'0:08.360',-1.290
'0:08.362',-1.200
'0:08.364',-1.345
'0:08.366',-1.245
'0:08.368',-1.310
'0:08.370',-1.355
'0:08.372',-1.410
'0:08.374',-1.415
'0:08.376',-1.475
'0:08.378',-1.355
'0:08.380',-1.360
'0:08.382',-1.250
'0:08.384',-1.220
'0:08.386',-1.450
'0:08.388',-1.375
'0:08.390',-1.405
'0:08.392',-1.490
'0:08.394',-1.440
'0:08.396',-1.535
'0:08.398',-1.290
'0:08.400',-1.250
'0:08.402',-1.235
'0:08.404',-1.155
'0:08.406',-1.315
'0:08.408',-1.340
'0:08.410',-1.430
'0:08.412',-1.590
'0:08.414',-1.560
'0:08.416',-1.430
'0:08.418',-1.300
'0:08.420',-1.205
'0:08.422',-1.230
'0:08.424',-1.235
'0:08.426',-1.275
'0:08.428',-1.445
'0:08.430',-1.410
'0:08.432',-1.525
'0:08.434',-1.485
'0:08.436',-1.330
'0:08.438',-1.255
'0:08.440',-1.210
'0:08.442',-1.165
'0:08.444',-1.200
'0:08.446',-1.275
'0:08.448',-1.455
'0:08.450',-1.480
'0:08.452',-1.580
'0:08.454',-1.545
'0:08.456',-1.405
'0:08.458',-1.385
'0:08.460',-1.200
'0:08.462',-1.255
'0:08.464',-1.365
'0:08.466',-1.305
'0:08.468',-1.300
'0:08.470',-1.450
'0:08.472',-1.470
'0:08.474',-1.410
'0:08.476',-1.335
'0:08.478',-1.250
'0:08.480',-1.260
'0:08.482',-1.260
'0:08.484',-1.220
'0:08.486',-1.245
'0:08.488',-1.385
'0:08.490',-1.425
'0:08.492',-1.390
'0:08.494',-1.365
'0:08.496',-1.315
'0:08.498',-1.300
'0:08.500',-1.150
'0:08.502',-1.075
'0:08.504',-1.190
'0:08.506',-1.105
'0:08.508',-1.220
'0:08.510',-1.405
'0:08.512',-1.390
'0:08.514',-1.410
'0:08.516',-1.330
'0:08.518',-1.275
'0:08.520',-1.180
'0:08.522',-1.115
'0:08.524',-1.300
'0:08.526',-1.345
'0:08.528',-1.330
'0:08.530',-1.525
'0:08.532',-1.555
'0:08.534',-1.540
'0:08.536',-1.375
'0:08.538',-1.275
'0:08.540',-1.160
'0:08.542',-1.155
'0:08.544',-1.085
'0:08.546',-1.390
'0:08.548',-1.385
'0:08.550',-1.470
'0:08.552',-1.550
'0:08.554',-1.485
'0:08.556',-1.470
'0:08.558',-1.360
'0:08.560',-1.220
'0:08.562',-1.295
'0:08.564',-1.305
'0:08.566',-1.325
'0:08.568',-1.475
'0:08.570',-1.495
'0:08.572',-1.450
'0:08.574',-1.500
'0:08.576',-1.335
'0:08.578',-1.450
'0:08.580',-1.340
'0:08.582',-1.330
'0:08.584',-1.290
'0:08.586',-1.380
'0:08.588',-1.435
'0:08.590',-1.485
'0:08.592',-1.310
'0:08.594',-1.100
'0:08.596',-0.880
'0:08.598',-0.740
'0:08.600',-0.620
'0:08.602',-0.545
'0:08.604',-0.540
'0:08.606',-0.490
'0:08.608',-0.500
'0:08.610',-0.635
'0:08.612',-0.585
'0:08.614',-0.415
'0:08.616',-0.400
'0:08.618',-0.450
'0:08.620',-0.620
'0:08.622',-0.935
'0:08.624',-1.095
'0:08.626',-1.210
'0:08.628',-1.275
'0:08.630',-1.375
'0:08.632',-1.345
'0:08.634',-1.320
'0:08.636',-1.240
'0:08.638',-1.205
'0:08.640',-1.165
'0:08.642',-1.140
'0:08.644',-1.210
'0:08.646',-1.255
'0:08.648',-1.455
'0:08.650',-1.545
'0:08.652',-1.540
'0:08.654',-1.430
'0:08.656',-1.320
'0:08.658',-1.380
'0:08.660',-1.170
'0:08.662',-1.210
'0:08.664',-1.250
'0:08.666',-1.410
'0:08.668',-1.380
'0:08.670',-1.495
'0:08.672',-1.490
'0:08.674',-1.445
'0:08.676',-1.270
'0:08.678',-1.315
'0:08.680',-1.230
'0:08.682',-1.215
'0:08.684',-1.280
'0:08.686',-1.410
'0:08.688',-1.445
'0:08.690',-1.550
'0:08.692',-1.565
'0:08.694',-1.505
'0:08.696',-1.335
'0:08.698',-1.295
'0:08.700',-1.200
'0:08.702',-1.155
'0:08.704',-1.290
'0:08.706',-1.420
'0:08.708',-1.435
'0:08.710',-1.565
'0:08.712',-1.490
'0:08.714',-1.455
'0:08.716',-1.295
'0:08.718',-1.250
'0:08.720',-1.150
'0:08.722',-1.175
'0:08.724',-1.260
'0:08.726',-1.330
'0:08.728',-1.480
'0:08.730',-1.495
'0:08.732',-1.470
'0:08.734',-1.450
'0:08.736',-1.310
'0:08.738',-1.285
'0:08.740',-1.240
'0:08.742',-1.230
'0:08.744',-1.245
'0:08.746',-1.310
'0:08.748',-1.365
'0:08.750',-1.420
'0:08.752',-1.440
'0:08.754',-1.270
'0:08.756',-1.245
'0:08.758',-1.140
'0:08.760',-1.150
'0:08.762',-1.255
'0:08.764',-1.265
'0:08.766',-1.270
'0:08.768',-1.395
'0:08.770',-1.410
'0:08.772',-1.400
'0:08.774',-1.265
'0:08.776',-1.255
'0:08.778',-1.095
'0:08.780',-1.175
'0:08.782',-1.260
'0:08.784',-1.260
'0:08.786',-1.370
'0:08.788',-1.385
'0:08.790',-1.300
'0:08.792',-1.360
'0:08.794',-1.260
'0:08.796',-1.210
'0:08.798',-1.205
'0:08.800',-1.190
'0:08.802',-1.265
'0:08.804',-1.270
'0:08.806',-1.325
'0:08.808',-1.400
'0:08.810',-1.380
'0:08.812',-1.355
'0:08.814',-1.285
'0:08.816',-1.235
'0:08.818',-1.080
'0:08.820',-1.165
'0:08.822',-1.180
'0:08.824',-1.270
'0:08.826',-1.285
'0:08.828',-1.370
'0:08.830',-1.345
'0:08.832',-1.400
'0:08.834',-1.285
'0:08.836',-1.280
'0:08.838',-1.180
'0:08.840',-1.075
'0:08.842',-1.205
'0:08.844',-1.270
'0:08.846',-1.310
'0:08.848',-1.435
'0:08.850',-1.430
'0:08.852',-1.480
'0:08.854',-1.405
'0:08.856',-1.395
'0:08.858',-1.190
'0:08.860',-1.165
'0:08.862',-1.230
'0:08.864',-1.385
'0:08.866',-1.375
'0:08.868',-1.580
'0:08.870',-1.510
'0:08.872',-1.475
'0:08.874',-1.445
'0:08.876',-1.465
'0:08.878',-1.345
'0:08.880',-1.335
'0:08.882',-1.435
'0:08.884',-1.460
'0:08.886',-1.620
'0:08.888',-1.635
'0:08.890',-1.490
'0:08.892',-1.550
'0:08.894',-1.500
'0:08.896',-1.405
'0:08.898',-1.300
'0:08.900',-1.365
'0:08.902',-1.410
'0:08.904',-1.445
'0:08.906',-1.465
'0:08.908',-1.750
'0:08.910',-1.655
'0:08.912',-1.550
'0:08.914',-1.450
'0:08.916',-1.450
'0:08.918',-1.295
'0:08.920',-1.340
'0:08.922',-1.455
'0:08.924',-1.495
'0:08.926',-1.525
'0:08.928',-1.660
'0:08.930',-1.495
'0:08.932',-1.585
'0:08.934',-1.545
'0:08.936',-1.410
'0:08.938',-1.315
'0:08.940',-1.240
'0:08.942',-1.350
'0:08.944',-1.505
'0:08.946',-1.535
'0:08.948',-1.590
'0:08.950',-1.510
'0:08.952',-1.435
'0:08.954',-1.555
'0:08.956',-1.380
'0:08.958',-1.260
'0:08.960',-1.255
'0:08.962',-1.370
'0:08.964',-1.390
'0:08.966',-1.445
'0:08.968',-1.585
'0:08.970',-1.625
'0:08.972',-1.535
'0:08.974',-1.455
'0:08.976',-1.375
'0:08.978',-1.280
'0:08.980',-1.330
'0:08.982',-1.385
'0:08.984',-1.480
'0:08.986',-1.455
'0:08.988',-1.505
'0:08.990',-1.470
'0:08.992',-1.460
'0:08.994',-1.505
'0:08.996',-1.380
'0:08.998',-1.210
'0:09.000',-1.310
'0:09.002',-1.400
'0:09.004',-1.445
'0:09.006',-1.475
'0:09.008',-1.560
'0:09.010',-1.505
'0:09.012',-1.490
'0:09.014',-1.465
'0:09.016',-1.385
'0:09.018',-1.165
'0:09.020',-1.225
'0:09.022',-1.295
'0:09.024',-1.390
'0:09.026',-1.500
'0:09.028',-1.525
'0:09.030',-1.675
'0:09.032',-1.435
'0:09.034',-1.385
'0:09.036',-1.375
'0:09.038',-1.240
'0:09.040',-1.240
'0:09.042',-1.285
'0:09.044',-1.395
'0:09.046',-1.385
'0:09.048',-1.500
'0:09.050',-1.535
'0:09.052',-1.395
'0:09.054',-1.390
'0:09.056',-1.355
'0:09.058',-1.255
'0:09.060',-1.320
'0:09.062',-1.375
'0:09.064',-1.420
'0:09.066',-1.505
'0:09.068',-1.480
'0:09.070',-1.440
'0:09.072',-1.460
'0:09.074',-1.280
'0:09.076',-1.210
'0:09.078',-1.235
'0:09.080',-1.265
'0:09.082',-1.350
'0:09.084',-1.380
'0:09.086',-1.475
'0:09.088',-1.450
'0:09.090',-1.375
'0:09.092',-1.435
'0:09.094',-1.355
'0:09.096',-1.270
'0:09.098',-1.255
'0:09.100',-1.335
'0:09.102',-1.385
'0:09.104',-1.355
'0:09.106',-1.470
'0:09.108',-1.440
'0:09.110',-1.555
'0:09.112',-1.435
'0:09.114',-1.250
'0:09.116',-1.200
'0:09.118',-1.255
'0:09.120',-1.210
'0:09.122',-1.320
'0:09.124',-1.400
'0:09.126',-1.520
'0:09.128',-1.500
'0:09.130',-1.440
'0:09.132',-1.315
'0:09.134',-1.265
'0:09.136',-1.230
'0:09.138',-1.290
'0:09.140',-1.315
'0:09.142',-1.320
'0:09.144',-1.380
'0:09.146',-1.425
'0:09.148',-1.435
'0:09.150',-1.325
'0:09.152',-1.260
'0:09.154',-1.230
'0:09.156',-1.125
'0:09.158',-1.060
'0:09.160',-1.220
'0:09.162',-1.190
'0:09.164',-1.195
'0:09.166',-1.415
'0:09.168',-1.365
'0:09.170',-1.240
'0:09.172',-1.280
'0:09.174',-1.190
'0:09.176',-1.085
'0:09.178',-1.105
'0:09.180',-1.155
'0:09.182',-1.355
'0:09.184',-1.385
'0:09.186',-1.420
'0:09.188',-1.450
'0:09.190',-1.460
'0:09.192',-1.430
'0:09.194',-1.245
'0:09.196',-1.075
'0:09.198',-1.125
'0:09.200',-1.190
'0:09.202',-1.285
'0:09.204',-1.360
'0:09.206',-1.555
'0:09.208',-1.550
'0:09.210',-1.425
'0:09.212',-1.335
'0:09.214',-1.225
'0:09.216',-1.195
'0:09.218',-1.155
'0:09.220',-1.190
'0:09.222',-1.320
'0:09.224',-1.395
'0:09.226',-1.475
'0:09.228',-1.460
'0:09.230',-1.380
'0:09.232',-1.275
'0:09.234',-1.360
'0:09.236',-1.235
'0:09.238',-1.225
'0:09.240',-1.380
'0:09.242',-1.470
'0:09.244',-1.455
'0:09.246',-1.565
'0:09.248',-1.520
'0:09.250',-1.500
'0:09.252',-1.380
'0:09.254',-1.305
'0:09.256',-1.080
'0:09.258',-1.065
'0:09.260',-1.010
'0:09.262',-0.905
'0:09.264',-0.835
'0:09.266',-0.805
'0:09.268',-0.735
'0:09.270',-0.575
'0:09.272',-0.415
'0:09.274',-0.310
'0:09.276',-0.180
'0:09.278',-0.310
'0:09.280',-0.245
'0:09.282',-0.295
'0:09.284',-0.435
'0:09.286',-0.750
'0:09.288',-0.915
'0:09.290',-1.105
'0:09.292',-1.205
'0:09.294',-1.105
'0:09.296',-1.040
'0:09.298',-1.005
'0:09.300',-1.080
'0:09.302',-1.200
'0:09.304',-1.150
'0:09.306',-1.325
'0:09.308',-1.355
'0:09.310',-1.290
'0:09.312',-1.260
'0:09.314',-1.265
'0:09.316',-1.220
'0:09.318',-1.220
'0:09.320',-1.365
'0:09.322',-1.380
'0:09.324',-1.470
'0:09.326',-1.400
'0:09.328',-1.415
'0:09.330',-1.425
'0:09.332',-1.260
'0:09.334',-1.100
'0:09.336',-1.300
'0:09.338',-1.220
'0:09.340',-1.310
'0:09.342',-1.355
'0:09.344',-1.415
'0:09.346',-1.400
'0:09.348',-1.405
'0:09.350',-1.345
'0:09.352',-1.310
'0:09.354',-1.150
'0:09.356',-1.120
'0:09.358',-1.290
'0:09.360',-1.305
'0:09.362',-1.410
'0:09.364',-1.485
'0:09.366',-1.465
'0:09.368',-1.445
'0:09.370',-1.420
'0:09.372',-1.250
'0:09.374',-1.185
'0:09.376',-1.090
'0:09.378',-1.060
'0:09.380',-1.250
'0:09.382',-1.340
'0:09.384',-1.510
'0:09.386',-1.470
'0:09.388',-1.430
'0:09.390',-1.325
'0:09.392',-1.265
'0:09.394',-1.180
'0:09.396',-1.190
'0:09.398',-1.210
'0:09.400',-1.295
'0:09.402',-1.280
'0:09.404',-1.400
'0:09.406',-1.410
'0:09.408',-1.375
'0:09.410',-1.310
'0:09.412',-1.255
'0:09.414',-1.065
'0:09.416',-1.150
'0:09.418',-1.240
'0:09.420',-1.200
'0:09.422',-1.260
'0:09.424',-1.260
'0:09.426',-1.260
'0:09.428',-1.375
'0:09.430',-1.250
'0:09.432',-1.230
'0:09.434',-1.095
'0:09.436',-1.185
'0:09.438',-1.220
'0:09.440',-1.235
'0:09.442',-1.215
'0:09.444',-1.320
'0:09.446',-1.265
'0:09.448',-1.240
'0:09.450',-1.200
'0:09.452',-1.235
'0:09.454',-0.905
'0:09.456',-1.020
'0:09.458',-1.115
'0:09.460',-1.165
'0:09.462',-1.145
'0:09.464',-1.310
'0:09.466',-1.250
'0:09.468',-1.175
'0:09.470',-1.140
'0:09.472',-1.105
'0:09.474',-0.985
'0:09.476',-0.935
'0:09.478',-1.025
'0:09.480',-1.060
'0:09.482',-1.080
'0:09.484',-1.290
'0:09.486',-1.260
'0:09.488',-1.150
'0:09.490',-1.105
'0:09.492',-1.015
'0:09.494',-0.880
'0:09.496',-0.880
'0:09.498',-0.950
'0:09.500',-0.945
'0:09.502',-1.020
'0:09.504',-1.185
'0:09.506',-1.100
'0:09.508',-0.995
'0:09.510',-1.060
'0:09.512',-0.915
'0:09.514',-0.820
'0:09.516',-0.960
'0:09.518',-0.960
'0:09.520',-1.090
'0:09.522',-1.100
'0:09.524',-1.125
'0:09.526',-1.135
'0:09.528',-1.145
'0:09.530',-0.995
'0:09.532',-0.980
'0:09.534',-0.920
'0:09.536',-1.040
'0:09.538',-1.070
'0:09.540',-1.165
'0:09.542',-1.265
'0:09.544',-1.250
'0:09.546',-1.195
'0:09.548',-1.180
'0:09.550',-1.120
'0:09.552',-1.135
'0:09.554',-1.055
'0:09.556',-1.125
'0:09.558',-1.165
'0:09.560',-1.160
'0:09.562',-1.325
'0:09.564',-1.370
'0:09.566',-1.320
'0:09.568',-1.300
'0:09.570',-1.175
'0:09.572',-1.115
'0:09.574',-1.170
'0:09.576',-1.225
'0:09.578',-1.210
'0:09.580',-1.270
'0:09.582',-1.335
'0:09.584',-1.395
'0:09.586',-1.375
'0:09.588',-1.365
'0:09.590',-1.250
'0:09.592',-1.205
'0:09.594',-1.100
'0:09.596',-1.185
'0:09.598',-1.200
'0:09.600',-1.250
'0:09.602',-1.240
'0:09.604',-1.375
'0:09.606',-1.290
'0:09.608',-1.425
'0:09.610',-1.255
'0:09.612',-1.150
'0:09.614',-1.065
'0:09.616',-1.185
'0:09.618',-1.160
'0:09.620',-1.305
'0:09.622',-1.360
'0:09.624',-1.365
'0:09.626',-1.295
'0:09.628',-1.305
'0:09.630',-1.230
'0:09.632',-1.280
'0:09.634',-1.065
'0:09.636',-1.125
'0:09.638',-1.245
'0:09.640',-1.330
'0:09.642',-1.360
'0:09.644',-1.385
'0:09.646',-1.320
'0:09.648',-1.250
'0:09.650',-1.170
'0:09.652',-1.160
'0:09.654',-1.150
'0:09.656',-1.215
'0:09.658',-1.235
'0:09.660',-1.320
'0:09.662',-1.355
'0:09.664',-1.365
'0:09.666',-1.310
'0:09.668',-1.275
'0:09.670',-1.335
'0:09.672',-1.160
'0:09.674',-1.095
'0:09.676',-1.110
'0:09.678',-1.155
'0:09.680',-1.290
'0:09.682',-1.355
'0:09.684',-1.400
'0:09.686',-1.295
'0:09.688',-1.400
'0:09.690',-1.280
'0:09.692',-1.155
'0:09.694',-1.100
'0:09.696',-1.150
'0:09.698',-1.240
'0:09.700',-1.340
'0:09.702',-1.430
'0:09.704',-1.345
'0:09.706',-1.320
'0:09.708',-1.235
'0:09.710',-1.290
'0:09.712',-1.140
'0:09.714',-1.115
'0:09.716',-1.100
'0:09.718',-1.180
'0:09.720',-1.245
'0:09.722',-1.455
'0:09.724',-1.385
'0:09.726',-1.325
'0:09.728',-1.255
'0:09.730',-1.295
'0:09.732',-1.150
'0:09.734',-1.090
'0:09.736',-1.130
'0:09.738',-1.250
'0:09.740',-1.315
'0:09.742',-1.350
'0:09.744',-1.375
'0:09.746',-1.380
'0:09.748',-1.410
'0:09.750',-1.195
'0:09.752',-1.085
'0:09.754',-1.110
'0:09.756',-1.135
'0:09.758',-1.235
'0:09.760',-1.310
'0:09.762',-1.415
'0:09.764',-1.335
'0:09.766',-1.300
'0:09.768',-1.280
'0:09.770',-1.215
'0:09.772',-1.090
'0:09.774',-1.165
'0:09.776',-1.215
'0:09.778',-1.215
'0:09.780',-1.275
'0:09.782',-1.400
'0:09.784',-1.365
'0:09.786',-1.375
'0:09.788',-1.260
'0:09.790',-1.160
'0:09.792',-1.075
'0:09.794',-1.220
'0:09.796',-1.180
'0:09.798',-1.265
'0:09.800',-1.270
'0:09.802',-1.370
'0:09.804',-1.290
'0:09.806',-1.390
'0:09.808',-1.290
'0:09.810',-1.175
'0:09.812',-1.140
'0:09.814',-1.155
'0:09.816',-1.245
'0:09.818',-1.105
'0:09.820',-1.235
'0:09.822',-1.295
'0:09.824',-1.370
'0:09.826',-1.365
'0:09.828',-1.195
'0:09.830',-1.085
'0:09.832',-1.130
'0:09.834',-1.085
'0:09.836',-1.120
'0:09.838',-1.130
'0:09.840',-1.345
'0:09.842',-1.305
'0:09.844',-1.380
'0:09.846',-1.055
'0:09.848',-1.100
'0:09.850',-1.110
'0:09.852',-0.915
'0:09.854',-0.875
'0:09.856',-1.080
'0:09.858',-1.165
'0:09.860',-1.230
'0:09.862',-1.430
'0:09.864',-1.360
'0:09.866',-1.345
'0:09.868',-1.195
'0:09.870',-1.135
'0:09.872',-1.030
'0:09.874',-1.240
'0:09.876',-1.185
'0:09.878',-1.295
'0:09.880',-1.325
'0:09.882',-1.395
'0:09.884',-1.370
'0:09.886',-1.255
'0:09.888',-1.185
'0:09.890',-1.175
'0:09.892',-1.195
'0:09.894',-1.120
'0:09.896',-1.180
'0:09.898',-1.290
'0:09.900',-1.395
'0:09.902',-1.345
'0:09.904',-1.400
'0:09.906',-1.330
'0:09.908',-1.210
'0:09.910',-1.175
'0:09.912',-1.110
'0:09.914',-1.080
'0:09.916',-1.220
'0:09.918',-1.350
'0:09.920',-1.480
'0:09.922',-1.490
'0:09.924',-1.550
'0:09.926',-1.410
'0:09.928',-1.400
'0:09.930',-1.245
'0:09.932',-1.145
'0:09.934',-1.160
'0:09.936',-1.095
'0:09.938',-1.185
'0:09.940',-1.200
'0:09.942',-1.055
'0:09.944',-0.895
'0:09.946',-0.795
'0:09.948',-0.575
'0:09.950',-0.270
'0:09.952',-0.235
'0:09.954',-0.220
'0:09.956',-0.355
'0:09.958',-0.385
'0:09.960',-0.480
'0:09.962',-0.300
'0:09.964',-0.270
'0:09.966',-0.485
'0:09.968',-0.570
'0:09.970',-0.750
'0:09.972',-0.880
'0:09.974',-0.995
'0:09.976',-1.120
'0:09.978',-1.130
'0:09.980',-1.225
'0:09.982',-1.285
'0:09.984',-1.160
'0:09.986',-1.235
'0:09.988',-1.240
'0:09.990',-1.025
'0:09.992',-1.040
'0:09.994',-1.090
'0:09.996',-1.295
'0:09.998',-1.360
'0:10.000',-1.470
'0:10.002',-1.390
'0:10.004',-1.385
'0:10.006',-1.255
'0:10.008',-1.280
'0:10.010',-1.150
'0:10.012',-1.225
'0:10.014',-1.265
'0:10.016',-1.230
'0:10.018',-1.255
'0:10.020',-1.380
'0:10.022',-1.405
'0:10.024',-1.280
'0:10.026',-1.350
'0:10.028',-1.245
'0:10.030',-1.170
'0:10.032',-1.170
'0:10.034',-1.085
'0:10.036',-1.250
'0:10.038',-1.195
'0:10.040',-1.320
'0:10.042',-1.455
'0:10.044',-1.355
'0:10.046',-1.410
'0:10.048',-1.245
'0:10.050',-1.005
'0:10.052',-1.100
'0:10.054',-1.185
'0:10.056',-1.120
'0:10.058',-1.270
'0:10.060',-1.430
'0:10.062',-1.405
'0:10.064',-1.305
'0:10.066',-1.325
'0:10.068',-1.230
'0:10.070',-1.295
'0:10.072',-1.055
'0:10.074',-1.115
'0:10.076',-1.220
'0:10.078',-1.245
'0:10.080',-1.375
'0:10.082',-1.385
'0:10.084',-1.280
'0:10.086',-1.280
'0:10.088',-1.155
'0:10.090',-1.110
'0:10.092',-1.170
'0:10.094',-1.240
'0:10.096',-1.170
'0:10.098',-1.245
'0:10.100',-1.345
'0:10.102',-1.290
'0:10.104',-1.320
'0:10.106',-1.275
'0:10.108',-1.110
'0:10.110',-0.965
'0:10.112',-1.065
'0:10.114',-1.100
'0:10.116',-1.070
'0:10.118',-1.220
'0:10.120',-1.275
'0:10.122',-1.290
'0:10.124',-1.245
'0:10.126',-1.200
'0:10.128',-1.075
'0:10.130',-1.095
'0:10.132',-1.040
'0:10.134',-1.175
'0:10.136',-1.270
'0:10.138',-1.225
'0:10.140',-1.430
'0:10.142',-1.310
'0:10.144',-1.315
'0:10.146',-1.180
'0:10.148',-1.245
'0:10.150',-1.060
'0:10.152',-1.150
'0:10.154',-1.150
'0:10.156',-1.105
'0:10.158',-1.250
'0:10.160',-1.315
'0:10.162',-1.300
'0:10.164',-1.185
'0:10.166',-1.205
'0:10.168',-1.190
'0:10.170',-1.085
'0:10.172',-1.120
'0:10.174',-1.150
'0:10.176',-1.165
'0:10.178',-1.300
'0:10.180',-1.235
'0:10.182',-1.175
'0:10.184',-1.190
'0:10.186',-1.145
'0:10.188',-1.000
'0:10.190',-0.920
'0:10.192',-0.965
'0:10.194',-0.990
'0:10.196',-1.075
'0:10.198',-1.180
'0:10.200',-1.280
'0:10.202',-1.230
'0:10.204',-1.230
'0:10.206',-1.035
'0:10.208',-1.085
'0:10.210',-0.975
'0:10.212',-0.955
'0:10.214',-1.125
'0:10.216',-1.115
'0:10.218',-1.215
'0:10.220',-1.370
'0:10.222',-1.235
'0:10.224',-1.180
'0:10.226',-1.215
'0:10.228',-1.065
'0:10.230',-1.035
'0:10.232',-0.990
'0:10.234',-1.140
'0:10.236',-1.230
'0:10.238',-1.250
'0:10.240',-1.335
'0:10.242',-1.230
'0:10.244',-1.295
'0:10.246',-1.225
'0:10.248',-1.135
'0:10.250',-1.130
'0:10.252',-1.185
'0:10.254',-1.320
'0:10.256',-1.225
'0:10.258',-1.355
'0:10.260',-1.355
'0:10.262',-1.330
'0:10.264',-1.215
'0:10.266',-1.265
'0:10.268',-1.130
'0:10.270',-1.060
'0:10.272',-1.200
'0:10.274',-1.290
'0:10.276',-1.285
'0:10.278',-1.455
'0:10.280',-1.390
'0:10.282',-1.335
'0:10.284',-1.240
'0:10.286',-1.335
'0:10.288',-1.070
'0:10.290',-1.080
'0:10.292',-1.120
'0:10.294',-1.250
'0:10.296',-1.265
'0:10.298',-1.380
'0:10.300',-1.320
'0:10.302',-1.245
'0:10.304',-1.330
'0:10.306',-1.225
'0:10.308',-1.165
'0:10.310',-1.150
'0:10.312',-1.230
'0:10.314',-1.135
'0:10.316',-1.260
'0:10.318',-1.540
'0:10.320',-1.355
'0:10.322',-1.300
'0:10.324',-1.200
'0:10.326',-1.255
'0:10.328',-1.085
'0:10.330',-1.095
'0:10.332',-1.140
'0:10.334',-1.150
'0:10.336',-1.300
'0:10.338',-1.370
'0:10.340',-1.355
'0:10.342',-1.295
'0:10.344',-1.190
'0:10.346',-1.210
'0:10.348',-1.105
'0:10.350',-1.085
'0:10.352',-1.185
'0:10.354',-1.255
'0:10.356',-1.330
'0:10.358',-1.415
'0:10.360',-1.350
'0:10.362',-1.390
'0:10.364',-1.165
'0:10.366',-1.100
'0:10.368',-1.045
'0:10.370',-1.120
'0:10.372',-1.155
'0:10.374',-1.260
'0:10.376',-1.270
'0:10.378',-1.405
'0:10.380',-1.355
'0:10.382',-1.305
'0:10.384',-1.230
'0:10.386',-1.295
'0:10.388',-1.080
'0:10.390',-1.160
'0:10.392',-1.160
'0:10.394',-1.175
'0:10.396',-1.280
'0:10.398',-1.460
'0:10.400',-1.415
'0:10.402',-1.330
'0:10.404',-1.270
'0:10.406',-1.185
'0:10.408',-1.030
'0:10.410',-1.075
'0:10.412',-1.165
'0:10.414',-1.185
'0:10.416',-1.275
'0:10.418',-1.400
'0:10.420',-1.355
'0:10.422',-1.260
'0:10.424',-1.190
'0:10.426',-1.140
'0:10.428',-1.230
'0:10.430',-1.115
'0:10.432',-1.090
'0:10.434',-1.220
'0:10.436',-1.260
'0:10.438',-1.355
'0:10.440',-1.325
'0:10.442',-1.265
'0:10.444',-1.250
'0:10.446',-1.205
'0:10.448',-1.085
'0:10.450',-1.155
'0:10.452',-1.185
'0:10.454',-1.290
'0:10.456',-1.285
'0:10.458',-1.350
'0:10.460',-1.355
'0:10.462',-1.295
'0:10.464',-1.210
'0:10.466',-1.120
'0:10.468',-1.055
'0:10.470',-1.110
'0:10.472',-1.215
'0:10.474',-1.275
'0:10.476',-1.305
'0:10.478',-1.310
'0:10.480',-1.275
'0:10.482',-1.270
'0:10.484',-1.190
'0:10.486',-1.255
'0:10.488',-1.075
'0:10.490',-1.185
'0:10.492',-1.150
'0:10.494',-1.335
'0:10.496',-1.330
'0:10.498',-1.340
'0:10.500',-1.220
'0:10.502',-1.280
'0:10.504',-1.135
'0:10.506',-1.150
'0:10.508',-1.030
'0:10.510',-1.045
'0:10.512',-1.190
'0:10.514',-1.235
'0:10.516',-1.300
'0:10.518',-1.245
'0:10.520',-1.235
'0:10.522',-1.165
'0:10.524',-1.155
'0:10.526',-1.060
'0:10.528',-1.005
'0:10.530',-1.065
'0:10.532',-1.065
'0:10.534',-1.075
'0:10.536',-1.200
'0:10.538',-1.210
'0:10.540',-1.225
'0:10.542',-1.125
'0:10.544',-1.005
'0:10.546',-1.030
'0:10.548',-0.970
'0:10.550',-1.075
'0:10.552',-1.115
'0:10.554',-1.150
'0:10.556',-1.350
'0:10.558',-1.330
'0:10.560',-1.250
'0:10.562',-1.275
'0:10.564',-1.190
'0:10.566',-1.135
'0:10.568',-1.020
'0:10.570',-1.080
'0:10.572',-1.170
'0:10.574',-1.330
'0:10.576',-1.445
'0:10.578',-1.280
'0:10.580',-1.240
'0:10.582',-1.215
'0:10.584',-1.150
'0:10.586',-1.245
'0:10.588',-1.180
'0:10.590',-1.190
'0:10.592',-1.205
'0:10.594',-1.200
'0:10.596',-1.370
'0:10.598',-1.340
'0:10.600',-1.280
'0:10.602',-1.230
'0:10.604',-1.240
'0:10.606',-1.135
'0:10.608',-1.155
'0:10.610',-1.170
'0:10.612',-1.320
'0:10.614',-1.300
'0:10.616',-1.520
'0:10.618',-1.460
'0:10.620',-1.405
'0:10.622',-1.335
'0:10.624',-1.200
'0:10.626',-0.965
'0:10.628',-0.870
'0:10.630',-0.760
'0:10.632',-0.695
'0:10.634',-0.655
'0:10.636',-0.630
'0:10.638',-0.575
'0:10.640',-0.450
'0:10.642',-0.325
'0:10.644',-0.215
'0:10.646',-0.090
'0:10.648',-0.045
'0:10.650',-0.105
'0:10.652',-0.365
'0:10.654',-0.430
'0:10.656',-0.855
'0:10.658',-1.110
'0:10.660',-1.185
'0:10.662',-1.040
'0:10.664',-0.975
'0:10.666',-0.920
'0:10.668',-0.975
'0:10.670',-0.975
'0:10.672',-1.050
'0:10.674',-1.150
'0:10.676',-1.345
'0:10.678',-1.310
'0:10.680',-1.325
'0:10.682',-1.215
'0:10.684',-1.205
'0:10.686',-1.185
'0:10.688',-1.070
'0:10.690',-1.240
'0:10.692',-1.250
'0:10.694',-1.255
'0:10.696',-1.455
'0:10.698',-1.360
'0:10.700',-1.335
'0:10.702',-1.210
'0:10.704',-1.210
'0:10.706',-1.095
'0:10.708',-1.120
'0:10.710',-1.235
'0:10.712',-1.310
'0:10.714',-1.215
'0:10.716',-1.435
'0:10.718',-1.420
'0:10.720',-1.275
'0:10.722',-1.145
'0:10.724',-1.125
'0:10.726',-1.055
'0:10.728',-1.060
'0:10.730',-1.190
'0:10.732',-1.195
'0:10.734',-1.245
'0:10.736',-1.460
'0:10.738',-1.345
'0:10.740',-1.360
'0:10.742',-1.310
'0:10.744',-1.240
'0:10.746',-1.130
'0:10.748',-1.010
'0:10.750',-1.190
'0:10.752',-1.330
'0:10.754',-1.265
'0:10.756',-1.310
'0:10.758',-1.330
'0:10.760',-1.175
'0:10.762',-1.190
'0:10.764',-1.215
'0:10.766',-1.035
'0:10.768',-1.075
'0:10.770',-1.260
'0:10.772',-1.180
'0:10.774',-1.280
'0:10.776',-1.315
'0:10.778',-1.300
'0:10.780',-1.335
'0:10.782',-1.095
'0:10.784',-1.130
'0:10.786',-1.095
'0:10.788',-1.155
'0:10.790',-1.070
'0:10.792',-1.135
'0:10.794',-1.335
'0:10.796',-1.335
'0:10.798',-1.235
'0:10.800',-1.245
'0:10.802',-1.240
'0:10.804',-1.125
'0:10.806',-1.090
'0:10.808',-1.090
'0:10.810',-1.155
'0:10.812',-1.055
'0:10.814',-1.140
'0:10.816',-1.210
'0:10.818',-1.175
'0:10.820',-1.140
'0:10.822',-1.205
'0:10.824',-1.020
'0:10.826',-1.005
'0:10.828',-0.995
'0:10.830',-1.045
'0:10.832',-1.150
'0:10.834',-1.230
'0:10.836',-1.230
'0:10.838',-1.165
'0:10.840',-1.085
'0:10.842',-1.000
'0:10.844',-0.820
'0:10.846',-0.925
'0:10.848',-0.860
'0:10.850',-1.045
'0:10.852',-1.020
'0:10.854',-1.105
'0:10.856',-1.085
'0:10.858',-1.130
'0:10.860',-1.030
'0:10.862',-0.935
'0:10.864',-0.815
'0:10.866',-0.905
'0:10.868',-0.860
'0:10.870',-0.970
'0:10.872',-1.005
'0:10.874',-1.150
'0:10.876',-0.985
'0:10.878',-1.085
'0:10.880',-1.020
'0:10.882',-0.915
'0:10.884',-0.895
'0:10.886',-0.950
'0:10.888',-0.930
'0:10.890',-0.875
'0:10.892',-0.990
'0:10.894',-1.090
'0:10.896',-0.945
'0:10.898',-1.020
'0:10.900',-1.030
'0:10.902',-0.985
'0:10.904',-0.870
'0:10.906',-0.930
'0:10.908',-1.015
'0:10.910',-1.005
'0:10.912',-1.120
'0:10.914',-1.215
'0:10.916',-1.220
'0:10.918',-1.140
'0:10.920',-1.160
'0:10.922',-1.115
'0:10.924',-1.040
'0:10.926',-1.095
'0:10.928',-1.135
'0:10.930',-1.060
'0:10.932',-1.235
'0:10.934',-1.325
'0:10.936',-1.255
'0:10.938',-1.305
'0:10.940',-1.180
'0:10.942',-1.115
'0:10.944',-1.080
'0:10.946',-1.070
'0:10.948',-1.105
'0:10.950',-1.250
'0:10.952',-1.245
'0:10.954',-1.325
'0:10.956',-1.355
'0:10.958',-1.355
'0:10.960',-1.250
'0:10.962',-1.230
'0:10.964',-1.095
'0:10.966',-1.045
'0:10.968',-1.115
'0:10.970',-1.230
'0:10.972',-1.395
'0:10.974',-1.285
'0:10.976',-1.315
'0:10.978',-1.315
'0:10.980',-1.195
'0:10.982',-1.200
'0:10.984',-1.100
'0:10.986',-1.050
'0:10.988',-1.130
'0:10.990',-1.280
'0:10.992',-1.270
'0:10.994',-1.420
'0:10.996',-1.500
'0:10.998',-1.285
'0:11.000',-1.115
'0:11.002',-1.225
'0:11.004',-1.125
'0:11.006',-1.095
'0:11.008',-1.095
'0:11.010',-1.180
'0:11.012',-1.235
'0:11.014',-1.350
'0:11.016',-1.370
'0:11.018',-1.300
'0:11.020',-1.250
'0:11.022',-1.180
'0:11.024',-1.065
'0:11.026',-1.230
'0:11.028',-1.215
'0:11.030',-1.205
'0:11.032',-1.195
'0:11.034',-1.265
'0:11.036',-1.230
'0:11.038',-1.215
'0:11.040',-1.195
'0:11.042',-1.285
'0:11.044',-1.095
'0:11.046',-1.110
'0:11.048',-1.240
'0:11.050',-1.360
'0:11.052',-1.355
'0:11.054',-1.345
'0:11.056',-1.375
'0:11.058',-1.320
'0:11.060',-1.235
'0:11.062',-1.090
'0:11.064',-1.165
'0:11.066',-1.075
'0:11.068',-1.180
'0:11.070',-1.120
'0:11.072',-1.340
'0:11.074',-1.345
'0:11.076',-1.410
'0:11.078',-1.285
'0:11.080',-1.165
'0:11.082',-1.155
'0:11.084',-1.140
'0:11.086',-1.115
'0:11.088',-1.200
'0:11.090',-1.260
'0:11.092',-1.330
'0:11.094',-1.390
'0:11.096',-1.420
'0:11.098',-1.290
'0:11.100',-1.170
'0:11.102',-1.130
'0:11.104',-1.130
'0:11.106',-1.030
'0:11.108',-1.215
'0:11.110',-1.315
'0:11.112',-1.330
'0:11.114',-1.300
'0:11.116',-1.305
'0:11.118',-1.335
'0:11.120',-1.195
'0:11.122',-1.150
'0:11.124',-1.170
'0:11.126',-1.210
'0:11.128',-1.175
'0:11.130',-1.235
'0:11.132',-1.340
'0:11.134',-1.480
'0:11.136',-1.360
'0:11.138',-1.225
'0:11.140',-1.215
'0:11.142',-1.085
'0:11.144',-1.070
'0:11.146',-1.130
'0:11.148',-1.245
'0:11.150',-1.195
'0:11.152',-1.315
'0:11.154',-1.305
'0:11.156',-1.350
'0:11.158',-1.360
'0:11.160',-1.165
'0:11.162',-1.135
'0:11.164',-1.200
'0:11.166',-1.115
'0:11.168',-1.225
'0:11.170',-1.330
'0:11.172',-1.420
'0:11.174',-1.400
'0:11.176',-1.385
'0:11.178',-1.290
'0:11.180',-1.140
'0:11.182',-1.035
'0:11.184',-1.135
'0:11.186',-1.155
'0:11.188',-1.235
'0:11.190',-1.245
'0:11.192',-1.445
'0:11.194',-1.355
'0:11.196',-1.260
'0:11.198',-1.190
'0:11.200',-1.130
'0:11.202',-1.020
'0:11.204',-1.165
'0:11.206',-1.110
'0:11.208',-1.205
'0:11.210',-1.210
'0:11.212',-1.450
'0:11.214',-1.155
'0:11.216',-1.270
'0:11.218',-1.060
'0:11.220',-1.030
'0:11.222',-0.935
'0:11.224',-0.965
'0:11.226',-1.015
'0:11.228',-1.140
'0:11.230',-1.190
'0:11.232',-1.220
'0:11.234',-1.285
'0:11.236',-1.165
'0:11.238',-1.210
'0:11.240',-1.170
'0:11.242',-1.075
'0:11.244',-1.115
'0:11.246',-1.205
'0:11.248',-1.175
'0:11.250',-1.330
'0:11.252',-1.500
'0:11.254',-1.395
'0:11.256',-1.405
'0:11.258',-1.240
'0:11.260',-1.195
'0:11.262',-1.115
'0:11.264',-1.160
'0:11.266',-1.165
'0:11.268',-1.250
'0:11.270',-1.275
'0:11.272',-1.440
'0:11.274',-1.385
'0:11.276',-1.330
'0:11.278',-1.150
'0:11.280',-1.120
'0:11.282',-1.085
'0:11.284',-1.125
'0:11.286',-1.185
'0:11.288',-1.325
'0:11.290',-1.360
'0:11.292',-1.415
'0:11.294',-1.400
'0:11.296',-1.415
'0:11.298',-1.390
'0:11.300',-1.355
'0:11.302',-1.215
'0:11.304',-1.275
'0:11.306',-1.270
'0:11.308',-1.250
'0:11.310',-1.320
'0:11.312',-1.300
'0:11.314',-1.090
'0:11.316',-1.005
'0:11.318',-0.790
'0:11.320',-0.605
'0:11.322',-0.465
'0:11.324',-0.370
'0:11.326',-0.495
'0:11.328',-0.475
'0:11.330',-0.395
'0:11.332',-0.530
'0:11.334',-0.465
'0:11.336',-0.305
'0:11.338',-0.240
'0:11.340',-0.305
'0:11.342',-0.475
'0:11.344',-0.810
'0:11.346',-0.990
'0:11.348',-1.135
'0:11.350',-1.240
'0:11.352',-1.295
'0:11.354',-1.275
'0:11.356',-1.160
'0:11.358',-1.170
'0:11.360',-1.110
'0:11.362',-0.975
'0:11.364',-1.030
'0:11.366',-1.115
'0:11.368',-1.260
'0:11.370',-1.260
'0:11.372',-1.320
'0:11.374',-1.320
'0:11.376',-1.300
'0:11.378',-1.290
'0:11.380',-1.175
'0:11.382',-1.120
'0:11.384',-1.195
'0:11.386',-1.220
'0:11.388',-1.280
'0:11.390',-1.350
'0:11.392',-1.355
'0:11.394',-1.295
'0:11.396',-1.260
'0:11.398',-1.350
'0:11.400',-1.080
'0:11.402',-1.050
'0:11.404',-1.100
'0:11.406',-1.250
'0:11.408',-1.250
'0:11.410',-1.425
'0:11.412',-1.390
'0:11.414',-1.350
'0:11.416',-1.255
'0:11.418',-1.290
'0:11.420',-1.170
'0:11.422',-1.095
'0:11.424',-1.135
'0:11.426',-1.245
'0:11.428',-1.210
'0:11.430',-1.355
'0:11.432',-1.325
'0:11.434',-1.250
'0:11.436',-1.295
'0:11.438',-1.260
'0:11.440',-1.075
'0:11.442',-1.025
'0:11.444',-1.120
'0:11.446',-1.180
'0:11.448',-1.265
'0:11.450',-1.340
'0:11.452',-1.420
'0:11.454',-1.285
'0:11.456',-1.205
'0:11.458',-1.165
'0:11.460',-1.095
'0:11.462',-1.040
'0:11.464',-1.110
'0:11.466',-1.145
'0:11.468',-1.130
'0:11.470',-1.265
'0:11.472',-1.300
'0:11.474',-1.260
'0:11.476',-1.210
'0:11.478',-1.145
'0:11.480',-1.020
'0:11.482',-1.035
'0:11.484',-1.000
'0:11.486',-1.130
'0:11.488',-1.185
'0:11.490',-1.265
'0:11.492',-1.210
'0:11.494',-1.330
'0:11.496',-1.245
'0:11.498',-1.070
'0:11.500',-1.025
'0:11.502',-1.045
'0:11.504',-0.975
'0:11.506',-1.120
'0:11.508',-1.160
'0:11.510',-1.185
'0:11.512',-1.230
'0:11.514',-1.150
'0:11.516',-1.120
'0:11.518',-0.970
'0:11.520',-0.880
'0:11.522',-0.965
'0:11.524',-1.010
'0:11.526',-0.975
'0:11.528',-1.015
'0:11.530',-1.235
'0:11.532',-1.150
'0:11.534',-1.260
'0:11.536',-1.030
'0:11.538',-0.870
'0:11.540',-0.845
'0:11.542',-0.860
'0:11.544',-0.845
'0:11.546',-0.950
'0:11.548',-0.960
'0:11.550',-1.065
'0:11.552',-1.030
'0:11.554',-1.000
'0:11.556',-0.925
'0:11.558',-0.935
'0:11.560',-0.925
'0:11.562',-0.895
'0:11.564',-0.865
'0:11.566',-0.880
'0:11.568',-0.935
'0:11.570',-1.100
'0:11.572',-1.060
'0:11.574',-1.065
'0:11.576',-0.990
'0:11.578',-0.860
'0:11.580',-0.845
'0:11.582',-0.935
'0:11.584',-0.940
'0:11.586',-0.965
'0:11.588',-1.005
'0:11.590',-1.090
'0:11.592',-1.135
'0:11.594',-1.190
'0:11.596',-1.025
'0:11.598',-1.080
'0:11.600',-0.925
'0:11.602',-0.920
'0:11.604',-0.970
'0:11.606',-1.035
'0:11.608',-1.225
'0:11.610',-1.345
'0:11.612',-1.280
'0:11.614',-1.200
'0:11.616',-1.085
'0:11.618',-1.085
'0:11.620',-0.980
'0:11.622',-1.020
'0:11.624',-1.135
'0:11.626',-1.170
'0:11.628',-1.275
'0:11.630',-1.350
'0:11.632',-1.265
'0:11.634',-1.295
'0:11.636',-1.305
'0:11.638',-1.165
'0:11.640',-1.090
'0:11.642',-1.105
'0:11.644',-1.165
'0:11.646',-1.260
'0:11.648',-1.285
'0:11.650',-1.360
'0:11.652',-1.320
'0:11.654',-1.300
'0:11.656',-1.155
'0:11.658',-1.215
'0:11.660',-1.140
'0:11.662',-1.120
'0:11.664',-1.210
'0:11.666',-1.160
'0:11.668',-1.300
'0:11.670',-1.445
'0:11.672',-1.335
'0:11.674',-1.235
'0:11.676',-1.210
'0:11.678',-1.160
'0:11.680',-1.020
'0:11.682',-1.160
'0:11.684',-1.150
'0:11.686',-1.285
'0:11.688',-1.390
'0:11.690',-1.305
'0:11.692',-1.280
'0:11.694',-1.195
'0:11.696',-1.045
'0:11.698',-1.145
'0:11.700',-1.235
'0:11.702',-1.265
'0:11.704',-1.220
'0:11.706',-1.270
'0:11.708',-1.345
'0:11.710',-1.270
'0:11.712',-1.400
'0:11.714',-1.215
'0:11.716',-1.170
'0:11.718',-1.140
'0:11.720',-1.115
'0:11.722',-1.165
'0:11.724',-1.215
'0:11.726',-1.280
'0:11.728',-1.310
'0:11.730',-1.405
'0:11.732',-1.325
'0:11.734',-1.245
'0:11.736',-1.185
'0:11.738',-1.075
'0:11.740',-1.190
'0:11.742',-1.095
'0:11.744',-1.100
'0:11.746',-1.170
'0:11.748',-1.385
'0:11.750',-1.340
'0:11.752',-1.355
'0:11.754',-1.385
'0:11.756',-1.235
'0:11.758',-1.150
'0:11.760',-1.080
'0:11.762',-1.135
'0:11.764',-1.230
'0:11.766',-1.270
'0:11.768',-1.280
'0:11.770',-1.300
'0:11.772',-1.355
'0:11.774',-1.260
'0:11.776',-1.245
'0:11.778',-1.125
'0:11.780',-1.020
'0:11.782',-1.260
'0:11.784',-1.225
'0:11.786',-1.150
'0:11.788',-1.325
'0:11.790',-1.325
'0:11.792',-1.290
'0:11.794',-1.260
'0:11.796',-1.190
'0:11.798',-1.020
'0:11.800',-1.060
'0:11.802',-1.250
'0:11.804',-1.200
'0:11.806',-1.275
'0:11.808',-1.480
'0:11.810',-1.360
'0:11.812',-1.350
'0:11.814',-1.305
'0:11.816',-1.210
'0:11.818',-1.060
'0:11.820',-1.100
'0:11.822',-1.155
'0:11.824',-1.235
'0:11.826',-1.290
'0:11.828',-1.460
'0:11.830',-1.345
'0:11.832',-1.315
'0:11.834',-1.160
'0:11.836',-1.220
'0:11.838',-1.125
'0:11.840',-1.090
'0:11.842',-1.135
'0:11.844',-1.175
'0:11.846',-1.270
'0:11.848',-1.415
'0:11.850',-1.320
'0:11.852',-1.360
'0:11.854',-1.265
'0:11.856',-1.275
'0:11.858',-1.100
'0:11.860',-1.210
'0:11.862',-1.180
'0:11.864',-1.265
'0:11.866',-1.260
'0:11.868',-1.305
'0:11.870',-1.380
'0:11.872',-1.325
'0:11.874',-1.130
'0:11.876',-1.115
'0:11.878',-0.985
'0:11.880',-1.110
'0:11.882',-1.145
'0:11.884',-1.140
'0:11.886',-1.150
'0:11.888',-1.270
'0:11.890',-1.265
'0:11.892',-1.290
'0:11.894',-1.140
'0:11.896',-0.960
'0:11.898',-0.890
'0:11.900',-1.055
'0:11.902',-1.080
'0:11.904',-1.145
'0:11.906',-1.160
'0:11.908',-1.350
'0:11.910',-1.345
'0:11.912',-1.185
'0:11.914',-1.255
'0:11.916',-1.215
'0:11.918',-1.150
'0:11.920',-1.125
'0:11.922',-1.245
'0:11.924',-1.280
'0:11.926',-1.355
'0:11.928',-1.390
'0:11.930',-1.375
'0:11.932',-1.190
'0:11.934',-1.235
'0:11.936',-1.145
'0:11.938',-1.085
'0:11.940',-1.135
'0:11.942',-1.165
'0:11.944',-1.340
'0:11.946',-1.330
'0:11.948',-1.365
'0:11.950',-1.350
'0:11.952',-1.330
'0:11.954',-1.210
'0:11.956',-1.205
'0:11.958',-1.095
'0:11.960',-1.175
'0:11.962',-1.235
'0:11.964',-1.285
'0:11.966',-1.375
'0:11.968',-1.390
'0:11.970',-1.630
'0:11.972',-1.490
'0:11.974',-1.350
'0:11.976',-1.295
'0:11.978',-1.195
'0:11.980',-1.120
'0:11.982',-1.270
'0:11.984',-1.120
'0:11.986',-1.185
'0:11.988',-1.175
'0:11.990',-0.995
'0:11.992',-0.800
'0:11.994',-0.665
'0:11.996',-0.540
'0:11.998',-0.400
'0:12.000',-0.355
'0:12.002',-0.410
'0:12.004',-0.455
'0:12.006',-0.460
'0:12.008',-0.460
'0:12.010',-0.420
'0:12.012',-0.365
'0:12.014',-0.435
'0:12.016',-0.720
'0:12.018',-0.900
'0:12.020',-0.995
'0:12.022',-1.080
'0:12.024',-1.260
'0:12.026',-1.255
'0:12.028',-1.280
'0:12.030',-1.280
'0:12.032',-1.205
'0:12.034',-1.060
'0:12.036',-1.025
'0:12.038',-1.050
'0:12.040',-1.060
'0:12.042',-1.190
'0:12.044',-1.175
'0:12.046',-1.440
'0:12.048',-1.450
'0:12.050',-1.375
'0:12.052',-1.315
'0:12.054',-1.285
'0:12.056',-1.130
'0:12.058',-1.145
'0:12.060',-1.210
'0:12.062',-1.285
'0:12.064',-1.200
'0:12.066',-1.360
'0:12.068',-1.460
'0:12.070',-1.365
'0:12.072',-1.245
'0:12.074',-1.295
'0:12.076',-1.140
'0:12.078',-1.120
'0:12.080',-1.245
'0:12.082',-1.365
'0:12.084',-1.260
'0:12.086',-1.360
'0:12.088',-1.450
'0:12.090',-1.355
'0:12.092',-1.430
'0:12.094',-1.250
'0:12.096',-1.010
'0:12.098',-1.055
'0:12.100',-1.180
'0:12.102',-1.225
'0:12.104',-1.320
'0:12.106',-1.385
'0:12.108',-1.415
'0:12.110',-1.305
'0:12.112',-1.270
'0:12.114',-1.145
'0:12.116',-1.020
'0:12.118',-1.145
'0:12.120',-1.145
'0:12.122',-1.270
'0:12.124',-1.280
'0:12.126',-1.395
'0:12.128',-1.330
'0:12.130',-1.250
'0:12.132',-1.165
'0:12.134',-1.135
'0:12.136',-1.120
'0:12.138',-1.115
'0:12.140',-1.220
'0:12.142',-1.240
'0:12.144',-1.175
'0:12.146',-1.250
'0:12.148',-1.315
'0:12.150',-1.230
'0:12.152',-1.180
'0:12.154',-1.270
'0:12.156',-1.065
'0:12.158',-1.195
'0:12.160',-1.095
'0:12.162',-1.170
'0:12.164',-1.210
'0:12.166',-1.280
'0:12.168',-1.325
'0:12.170',-1.175
'0:12.172',-1.060
'0:12.174',-1.135
'0:12.176',-0.995
'0:12.178',-1.065
'0:12.180',-1.050
'0:12.182',-1.135
'0:12.184',-1.215
'0:12.186',-1.340
'0:12.188',-1.165
'0:12.190',-1.110
'0:12.192',-1.145
'0:12.194',-0.980
'0:12.196',-0.955
'0:12.198',-0.950
'0:12.200',-0.925
'0:12.202',-1.060
'0:12.204',-1.085
'0:12.206',-1.215
'0:12.208',-1.155
'0:12.210',-1.120
'0:12.212',-0.995
'0:12.214',-1.000
'0:12.216',-0.880
'0:12.218',-0.925
'0:12.220',-0.930
'0:12.222',-0.830
'0:12.224',-1.075
'0:12.226',-1.170
'0:12.228',-1.085
'0:12.230',-0.955
'0:12.232',-0.985
'0:12.234',-0.990
'0:12.236',-0.905
'0:12.238',-0.960
'0:12.240',-0.990
'0:12.242',-1.015
'0:12.244',-1.060
'0:12.246',-1.125
'0:12.248',-1.035
'0:12.250',-0.955
'0:12.252',-0.880
'0:12.254',-0.915
'0:12.256',-0.865
'0:12.258',-0.910
'0:12.260',-1.010
'0:12.262',-1.125
'0:12.264',-1.190
'0:12.266',-1.025
'0:12.268',-1.165
'0:12.270',-1.140
'0:12.272',-1.040
'0:12.274',-1.035
'0:12.276',-0.915
'0:12.278',-0.995
'0:12.280',-0.975
'0:12.282',-1.115
'0:12.284',-1.350
'0:12.286',-1.380
'0:12.288',-1.295
'0:12.290',-1.245
'0:12.292',-1.205
'0:12.294',-1.085
'0:12.296',-1.070
'0:12.298',-1.075
'0:12.300',-1.070
'0:12.302',-1.235
'0:12.304',-1.385
'0:12.306',-1.290
'0:12.308',-1.445
'0:12.310',-1.300
'0:12.312',-1.150
'0:12.314',-1.110
'0:12.316',-1.135
'0:12.318',-1.215
'0:12.320',-1.265
'0:12.322',-1.310
'0:12.324',-1.290
'0:12.326',-1.355
'0:12.328',-1.365
'0:12.330',-1.210
'0:12.332',-1.195
'0:12.334',-1.065
'0:12.336',-1.060
'0:12.338',-1.140
'0:12.340',-1.160
'0:12.342',-1.295
'0:12.344',-1.405
'0:12.346',-1.380
'0:12.348',-1.330
'0:12.350',-1.225
'0:12.352',-1.220
'0:12.354',-1.035
'0:12.356',-1.055
'0:12.358',-1.190
'0:12.360',-1.200
'0:12.362',-1.295
'0:12.364',-1.405
'0:12.366',-1.390
'0:12.368',-1.320
'0:12.370',-1.245
'0:12.372',-1.120
'0:12.374',-1.135
'0:12.376',-1.065
'0:12.378',-1.095
'0:12.380',-1.130
'0:12.382',-1.175
'0:12.384',-1.430
'0:12.386',-1.320
'0:12.388',-1.310
'0:12.390',-1.315
'0:12.392',-1.215
'0:12.394',-1.080
'0:12.396',-1.175
'0:12.398',-1.145
'0:12.400',-1.235
'0:12.402',-1.310
'0:12.404',-1.375
'0:12.406',-1.320
'0:12.408',-1.210
'0:12.410',-1.280
'0:12.412',-1.150
'0:12.414',-1.060
'0:12.416',-1.045
'0:12.418',-1.070
'0:12.420',-1.100
'0:12.422',-1.285
'0:12.424',-1.330
'0:12.426',-1.405
'0:12.428',-1.395
'0:12.430',-1.305
'0:12.432',-1.190
'0:12.434',-1.090
'0:12.436',-1.170
'0:12.438',-1.110
'0:12.440',-1.140
'0:12.442',-1.280
'0:12.444',-1.335
'0:12.446',-1.260
'0:12.448',-1.265
'0:12.450',-1.195
'0:12.452',-1.220
'0:12.454',-0.970
'0:12.456',-1.100
'0:12.458',-1.165
'0:12.460',-1.295
'0:12.462',-1.270
'0:12.464',-1.285
'0:12.466',-1.395
'0:12.468',-1.250
'0:12.470',-1.130
'0:12.472',-1.155
'0:12.474',-1.090
'0:12.476',-1.060
'0:12.478',-1.145
'0:12.480',-1.185
'0:12.482',-1.280
'0:12.484',-1.400
'0:12.486',-1.405
'0:12.488',-1.395
'0:12.490',-1.285
'0:12.492',-1.150
'0:12.494',-1.030
'0:12.496',-1.045
'0:12.498',-1.105
'0:12.500',-1.195
'0:12.502',-1.135
'0:12.504',-1.265
'0:12.506',-1.405
'0:12.508',-1.325
'0:12.510',-1.265
'0:12.512',-1.145
'0:12.514',-1.105
'0:12.516',-1.080
'0:12.518',-1.135
'0:12.520',-1.265
'0:12.522',-1.275
'0:12.524',-1.340
'0:12.526',-1.375
'0:12.528',-1.225
'0:12.530',-1.230
'0:12.532',-1.185
'0:12.534',-1.085
'0:12.536',-1.115
'0:12.538',-1.075
'0:12.540',-1.150
'0:12.542',-1.250
'0:12.544',-1.265
'0:12.546',-1.210
'0:12.548',-1.160
'0:12.550',-1.085
'0:12.552',-0.915
'0:12.554',-0.950
'0:12.556',-0.925
'0:12.558',-1.095
'0:12.560',-1.130
'0:12.562',-1.210
'0:12.564',-1.315
'0:12.566',-1.135
'0:12.568',-1.215
'0:12.570',-1.120
'0:12.572',-1.080
'0:12.574',-1.055
'0:12.576',-0.985
'0:12.578',-1.125
'0:12.580',-1.225
'0:12.582',-1.315
'0:12.584',-1.365
'0:12.586',-1.350
'0:12.588',-1.410
'0:12.590',-1.295
'0:12.592',-1.110
'0:12.594',-1.100
'0:12.596',-1.095
'0:12.598',-1.170
'0:12.600',-1.210
'0:12.602',-1.295
'0:12.604',-1.355
'0:12.606',-1.250
'0:12.608',-1.295
'0:12.610',-1.245
'0:12.612',-1.110
'0:12.614',-1.000
'0:12.616',-1.120
'0:12.618',-1.290
'0:12.620',-1.250
'0:12.622',-1.370
'0:12.624',-1.400
'0:12.626',-1.395
'0:12.628',-1.395
'0:12.630',-1.345
'0:12.632',-1.230
'0:12.634',-1.070
'0:12.636',-1.250
'0:12.638',-1.310
'0:12.640',-1.285
'0:12.642',-1.385
'0:12.644',-1.180
'0:12.646',-1.245
'0:12.648',-0.950
'0:12.650',-0.810
'0:12.652',-0.490
'0:12.654',-0.495
'0:12.656',-0.485
'0:12.658',-0.485
'0:12.660',-0.455
'0:12.662',-0.575
'0:12.664',-0.415
'0:12.666',-0.485
'0:12.668',-0.250
'0:12.670',-0.165
'0:12.672',-0.200
'0:12.674',-0.315
'0:12.676',-0.615
'0:12.678',-0.945
'0:12.680',-0.965
'0:12.682',-1.185
'0:12.684',-1.180
'0:12.686',-1.170
'0:12.688',-1.125
'0:12.690',-1.135
'0:12.692',-0.935
'0:12.694',-0.990
'0:12.696',-1.020
'0:12.698',-1.110
'0:12.700',-1.210
'0:12.702',-1.420
'0:12.704',-1.345
'0:12.706',-1.260
'0:12.708',-1.320
'0:12.710',-1.235
'0:12.712',-1.085
'0:12.714',-1.060
'0:12.716',-1.115
'0:12.718',-1.310
'0:12.720',-1.270
'0:12.722',-1.405
'0:12.724',-1.330
'0:12.726',-1.335
'0:12.728',-1.195
'0:12.730',-1.150
'0:12.732',-1.060
'0:12.734',-1.090
'0:12.736',-1.180
'0:12.738',-1.265
'0:12.740',-1.330
'0:12.742',-1.455
'0:12.744',-1.435
'0:12.746',-1.375
'0:12.748',-1.365
'0:12.750',-1.190
'0:12.752',-1.160
'0:12.754',-1.165
'0:12.756',-1.140
'0:12.758',-1.205
'0:12.760',-1.280
'0:12.762',-1.265
'0:12.764',-1.280
'0:12.766',-1.315
'0:12.768',-1.275
'0:12.770',-1.330
'0:12.772',-1.000
'0:12.774',-1.040
'0:12.776',-1.230
'0:12.778',-1.255
'0:12.780',-1.300
'0:12.782',-1.325
'0:12.784',-1.310
'0:12.786',-1.335
'0:12.788',-1.175
'0:12.790',-1.140
'0:12.792',-1.030
'0:12.794',-1.085
'0:12.796',-1.135
'0:12.798',-1.215
'0:12.800',-1.195
'0:12.802',-1.345
'0:12.804',-1.345
'0:12.806',-1.220
'0:12.808',-1.090
'0:12.810',-1.095
'0:12.812',-1.055
'0:12.814',-1.020
'0:12.816',-1.125
'0:12.818',-1.250
'0:12.820',-1.375
'0:12.822',-1.410
'0:12.824',-1.245
'0:12.826',-1.205
'0:12.828',-1.145
'0:12.830',-1.060
'0:12.832',-0.930
'0:12.834',-1.055
'0:12.836',-1.070
'0:12.838',-1.160
'0:12.840',-1.260
'0:12.842',-1.270
'0:12.844',-1.235
'0:12.846',-1.190
'0:12.848',-1.225
'0:12.850',-1.050
'0:12.852',-0.925
'0:12.854',-0.855
'0:12.856',-0.980
'0:12.858',-1.110
'0:12.860',-1.215
'0:12.862',-1.175
'0:12.864',-1.090
'0:12.866',-1.105
'0:12.868',-1.030
'0:12.870',-0.875
'0:12.872',-0.785
'0:12.874',-0.855
'0:12.876',-1.055
'0:12.878',-1.025
'0:12.880',-1.010
'0:12.882',-1.130
'0:12.884',-1.180
'0:12.886',-1.090
'0:12.888',-0.960
'0:12.890',-0.815
'0:12.892',-0.780
'0:12.894',-0.885
'0:12.896',-0.860
'0:12.898',-0.910
'0:12.900',-1.120
'0:12.902',-1.195
'0:12.904',-1.130
'0:12.906',-0.945
'0:12.908',-0.955
'0:12.910',-0.865
'0:12.912',-0.860
'0:12.914',-0.870
'0:12.916',-0.970
'0:12.918',-1.105
'0:12.920',-1.160
'0:12.922',-1.070
'0:12.924',-1.150
'0:12.926',-1.080
'0:12.928',-0.940
'0:12.930',-0.930
'0:12.932',-0.935
'0:12.934',-0.920
'0:12.936',-1.040
'0:12.938',-1.220
'0:12.940',-1.280
'0:12.942',-1.320
'0:12.944',-1.255
'0:12.946',-1.240
'0:12.948',-1.155
'0:12.950',-1.040
'0:12.952',-1.075
'0:12.954',-1.145
'0:12.956',-1.015
'0:12.958',-1.145
'0:12.960',-1.345
'0:12.962',-1.350
'0:12.964',-1.340
'0:12.966',-1.290
'0:12.968',-1.260
'0:12.970',-1.090
'0:12.972',-1.090
'0:12.974',-1.035
'0:12.976',-1.215
'0:12.978',-1.330
'0:12.980',-1.340
'0:12.982',-1.315
'0:12.984',-1.400
'0:12.986',-1.315
'0:12.988',-1.165
'0:12.990',-1.020
'0:12.992',-1.085
'0:12.994',-1.130
'0:12.996',-1.210
'0:12.998',-1.270
'0:13.000',-1.475
'0:13.002',-1.430
'0:13.004',-1.285
'0:13.006',-1.175
'0:13.008',-1.280
'0:13.010',-1.155
'0:13.012',-1.075
'0:13.014',-1.040
'0:13.016',-1.175
'0:13.018',-1.170
'0:13.020',-1.310
'0:13.022',-1.290
'0:13.024',-1.295
'0:13.026',-1.265
'0:13.028',-1.210
'0:13.030',-1.085
'0:13.032',-1.110
'0:13.034',-1.195
'0:13.036',-1.240
'0:13.038',-1.270
'0:13.040',-1.365
'0:13.042',-1.330
'0:13.044',-1.370
'0:13.046',-1.225
'0:13.048',-1.130
'0:13.050',-1.025
'0:13.052',-0.995
'0:13.054',-1.175
'0:13.056',-1.200
'0:13.058',-1.255
'0:13.060',-1.460
'0:13.062',-1.375
'0:13.064',-1.285
'0:13.066',-1.235
'0:13.068',-1.150
'0:13.070',-1.110
'0:13.072',-1.135
'0:13.074',-1.220
'0:13.076',-1.315
'0:13.078',-1.285
'0:13.080',-1.395
'0:13.082',-1.370
'0:13.084',-1.430
'0:13.086',-1.275
'0:13.088',-1.165
'0:13.090',-1.050
'0:13.092',-0.990
'0:13.094',-1.100
'0:13.096',-1.175
'0:13.098',-1.275
'0:13.100',-1.405
'0:13.102',-1.370
'0:13.104',-1.250
'0:13.106',-1.235
'0:13.108',-1.180
'0:13.110',-1.085
'0:13.112',-1.095
'0:13.114',-1.240
'0:13.116',-1.205
'0:13.118',-1.270
'0:13.120',-1.335
'0:13.122',-1.300
'0:13.124',-1.255
'0:13.126',-1.110
'0:13.128',-1.190
'0:13.130',-1.080
'0:13.132',-1.170
'0:13.134',-1.240
'0:13.136',-1.250
'0:13.138',-1.300
'0:13.140',-1.490
'0:13.142',-1.370
'0:13.144',-1.225
'0:13.146',-1.215
'0:13.148',-1.255
'0:13.150',-1.080
'0:13.152',-1.105
'0:13.154',-1.205
'0:13.156',-1.170
'0:13.158',-1.375
'0:13.160',-1.265
'0:13.162',-1.335
'0:13.164',-1.270
'0:13.166',-1.330
'0:13.168',-1.215
'0:13.170',-1.095
'0:13.172',-1.035
'0:13.174',-1.120
'0:13.176',-1.215
'0:13.178',-1.350
'0:13.180',-1.375
'0:13.182',-1.350
'0:13.184',-1.275
'0:13.186',-1.295
'0:13.188',-1.080
'0:13.190',-0.950
'0:13.192',-1.150
'0:13.194',-1.100
'0:13.196',-1.230
'0:13.198',-1.405
'0:13.200',-1.240
'0:13.202',-1.320
'0:13.204',-1.065
'0:13.206',-1.005
'0:13.208',-1.100
'0:13.210',-0.980
'0:13.212',-0.930
'0:13.214',-1.050
'0:13.216',-1.105
'0:13.218',-1.240
'0:13.220',-1.290
'0:13.222',-1.255
'0:13.224',-1.265
'0:13.226',-1.120
'0:13.228',-0.955
'0:13.230',-1.180
'0:13.232',-1.200
'0:13.234',-1.140
'0:13.236',-1.175
'0:13.238',-1.345
'0:13.240',-1.380
'0:13.242',-1.275
'0:13.244',-1.285
'0:13.246',-1.220
'0:13.248',-1.085
'0:13.250',-1.080
'0:13.252',-1.200
'0:13.254',-1.225
'0:13.256',-1.230
'0:13.258',-1.355
'0:13.260',-1.260
'0:13.262',-1.370
'0:13.264',-1.300
'0:13.266',-1.285
'0:13.268',-1.135
'0:13.270',-1.065
'0:13.272',-1.080
'0:13.274',-1.210
'0:13.276',-1.275
'0:13.278',-1.405
'0:13.280',-1.375
'0:13.282',-1.340
'0:13.284',-1.205
'0:13.286',-1.225
'0:13.288',-1.285
'0:13.290',-1.135
'0:13.292',-1.255
'0:13.294',-1.300
'0:13.296',-1.370
'0:13.298',-1.535
'0:13.300',-1.455
'0:13.302',-1.410
'0:13.304',-1.355
'0:13.306',-1.055
'0:13.308',-0.920
'0:13.310',-0.810
'0:13.312',-0.655
'0:13.314',-0.645
'0:13.316',-0.675
'0:13.318',-0.705
'0:13.320',-0.605
'0:13.322',-0.400
'0:13.324',-0.315
'0:13.326',-0.255
