'Elapsed time','MLII'
'hh:mm:ss.mmm','mV'
'0:10.000',-0.550
'0:10.003',-0.560
'0:10.006',-0.575
'0:10.008',-0.575
'0:10.011',-0.570
'0:10.014',-0.565
'0:10.017',-0.545
'0:10.019',-0.570
'0:10.022',-0.575
'0:10.025',-0.580
'0:10.028',-0.560
'0:10.031',-0.550
'0:10.033',-0.550
'0:10.036',-0.555
'0:10.039',-0.570
'0:10.042',-0.570
'0:10.044',-0.555
'0:10.047',-0.540
'0:10.050',-0.545
'0:10.053',-0.555
'0:10.056',-0.545
'0:10.058',-0.535
'0:10.061',-0.520
'0:10.064',-0.515
'0:10.067',-0.535
'0:10.069',-0.520
'0:10.072',-0.510
'0:10.075',-0.480
'0:10.078',-0.440
'0:10.081',-0.415
'0:10.083',-0.385
'0:10.086',-0.335
'0:10.089',-0.310
'0:10.092',-0.275
'0:10.094',-0.230
'0:10.097',-0.205
'0:10.100',-0.210
'0:10.103',-0.225
'0:10.106',-0.220
'0:10.108',-0.170
'0:10.111',-0.125
'0:10.114',-0.115
'0:10.117',-0.140
'0:10.119',-0.170
'0:10.122',-0.210
'0:10.125',-0.220
'0:10.128',-0.225
'0:10.131',-0.225
'0:10.133',-0.210
'0:10.136',-0.200
'0:10.139',-0.185
'0:10.142',-0.150
'0:10.144',-0.100
'0:10.147',0.070
'0:10.150',0.435
'0:10.153',0.955
'0:10.156',1.390
'0:10.158',1.510
'0:10.161',1.400
'0:10.164',1.245
'0:10.167',1.140
'0:10.169',1.070
'0:10.172',0.985
'0:10.175',0.900
'0:10.178',0.805
'0:10.181',0.700
'0:10.183',0.575
'0:10.186',0.460
'0:10.189',0.340
'0:10.192',0.235
'0:10.194',0.135
'0:10.197',0.030
'0:10.200',-0.100
'0:10.203',-0.270
'0:10.206',-0.450
'0:10.208',-0.615
'0:10.211',-0.805
'0:10.214',-0.975
'0:10.217',-1.160
'0:10.219',-1.360
'0:10.222',-1.575
'0:10.225',-1.740
'0:10.228',-1.900
'0:10.231',-2.050
'0:10.233',-2.205
'0:10.236',-2.300
'0:10.239',-2.385
'0:10.242',-2.445
'0:10.244',-2.485
'0:10.247',-2.505
'0:10.250',-2.520
'0:10.253',-2.545
'0:10.256',-2.595
'0:10.258',-2.650
'0:10.261',-2.710
'0:10.264',-2.750
'0:10.267',-2.805
'0:10.269',-2.885
'0:10.272',-2.950
'0:10.275',-3.000
'0:10.278',-3.015
'0:10.281',-2.970
'0:10.283',-2.865
'0:10.286',-2.690
'0:10.289',-2.495
'0:10.292',-2.265
'0:10.294',-2.060
'0:10.297',-1.925
'0:10.300',-1.790
'0:10.303',-1.660
'0:10.306',-1.580
'0:10.308',-1.505
'0:10.311',-1.435
'0:10.314',-1.405
'0:10.317',-1.365
'0:10.319',-1.330
'0:10.322',-1.310
'0:10.325',-1.275
'0:10.328',-1.250
'0:10.331',-1.240
'0:10.333',-1.215
'0:10.336',-1.190
'0:10.339',-1.130
'0:10.342',-1.060
'0:10.344',-0.975
'0:10.347',-0.905
'0:10.350',-0.850
'0:10.353',-0.815
'0:10.356',-0.755
'0:10.358',-0.695
'0:10.361',-0.615
'0:10.364',-0.530
'0:10.367',-0.450
'0:10.369',-0.385
'0:10.372',-0.330
'0:10.375',-0.260
'0:10.378',-0.195
'0:10.381',-0.125
'0:10.383',-0.080
'0:10.386',-0.045
'0:10.389',-0.035
'0:10.392',-0.020
'0:10.394',0.015
'0:10.397',0.035
'0:10.400',0.065
'0:10.403',0.080
'0:10.406',0.080
'0:10.408',0.110
'0:10.411',0.145
'0:10.414',0.175
'0:10.417',0.205
'0:10.419',0.225
'0:10.422',0.230
'0:10.425',0.265
'0:10.428',0.300
'0:10.431',0.350
'0:10.433',0.375
'0:10.436',0.405
'0:10.439',0.410
'0:10.442',0.435
'0:10.444',0.470
'0:10.447',0.510
'0:10.450',0.535
'0:10.453',0.560
'0:10.456',0.575
'0:10.458',0.610
'0:10.461',0.635
'0:10.464',0.695
'0:10.467',0.735
'0:10.469',0.765
'0:10.472',0.780
'0:10.475',0.790
'0:10.478',0.840
'0:10.481',0.865
'0:10.483',0.900
'0:10.486',0.935
'0:10.489',0.945
'0:10.492',0.950
'0:10.494',0.975
'0:10.497',0.995
'0:10.500',1.010
'0:10.503',1.010
'0:10.506',1.025
'0:10.508',1.035
'0:10.511',1.040
'0:10.514',1.030
'0:10.517',1.030
'0:10.519',1.010
'0:10.522',0.990
'0:10.525',0.985
'0:10.528',0.985
'0:10.531',0.970
'0:10.533',0.945
'0:10.536',0.900
'0:10.539',0.870
'0:10.542',0.840
'0:10.544',0.810
'0:10.547',0.765
'0:10.550',0.740
'0:10.553',0.685
'0:10.556',0.650
'0:10.558',0.630
'0:10.561',0.610
'0:10.564',0.565
'0:10.567',0.505
'0:10.569',0.430
'0:10.572',0.370
'0:10.575',0.330
'0:10.578',0.315
'0:10.581',0.295
'0:10.583',0.240
'0:10.586',0.170
'0:10.589',0.125
'0:10.592',0.070
'0:10.594',0.040
'0:10.597',0.010
'0:10.600',-0.030
'0:10.603',-0.075
'0:10.606',-0.120
'0:10.608',-0.160
'0:10.611',-0.190
'0:10.614',-0.215
'0:10.617',-0.235
'0:10.619',-0.275
'0:10.622',-0.315
'0:10.625',-0.325
'0:10.628',-0.350
'0:10.631',-0.370
'0:10.633',-0.390
'0:10.636',-0.415
'0:10.639',-0.435
'0:10.642',-0.450
'0:10.644',-0.465
'0:10.647',-0.490
'0:10.650',-0.500
'0:10.653',-0.515
'0:10.656',-0.515
'0:10.658',-0.500
'0:10.661',-0.500
'0:10.664',-0.510
'0:10.667',-0.515
'0:10.669',-0.550
'0:10.672',-0.545
'0:10.675',-0.555
'0:10.678',-0.540
'0:10.681',-0.520
'0:10.683',-0.505
'0:10.686',-0.525
'0:10.689',-0.535
'0:10.692',-0.555
'0:10.694',-0.560
'0:10.697',-0.555
'0:10.700',-0.545
'0:10.703',-0.560
'0:10.706',-0.580
'0:10.708',-0.570
'0:10.711',-0.565
'0:10.714',-0.555
'0:10.717',-0.575
'0:10.719',-0.580
'0:10.722',-0.590
'0:10.725',-0.570
'0:10.728',-0.565
'0:10.731',-0.570
'0:10.733',-0.580
'0:10.736',-0.590
'0:10.739',-0.605
'0:10.742',-0.620
'0:10.744',-0.605
'0:10.747',-0.585
'0:10.750',-0.575
'0:10.753',-0.590
'0:10.756',-0.590
'0:10.758',-0.605
'0:10.761',-0.590
'0:10.764',-0.560
'0:10.767',-0.560
'0:10.769',-0.575
'0:10.772',-0.580
'0:10.775',-0.565
'0:10.778',-0.570
'0:10.781',-0.550
'0:10.783',-0.555
'0:10.786',-0.555
'0:10.789',-0.560
'0:10.792',-0.560
'0:10.794',-0.535
'0:10.797',-0.545
'0:10.800',-0.520
'0:10.803',-0.530
'0:10.806',-0.540
'0:10.808',-0.525
'0:10.811',-0.500
'0:10.814',-0.450
'0:10.817',-0.445
'0:10.819',-0.395
'0:10.822',-0.355
'0:10.825',-0.305
'0:10.828',-0.280
'0:10.831',-0.240
'0:10.833',-0.240
'0:10.836',-0.250
'0:10.839',-0.260
'0:10.842',-0.240
'0:10.844',-0.210
'0:10.847',-0.210
'0:10.850',-0.220
'0:10.853',-0.260
'0:10.856',-0.300
'0:10.858',-0.315
'0:10.861',-0.325
'0:10.864',-0.335
'0:10.867',-0.340
'0:10.869',-0.355
'0:10.872',-0.365
'0:10.875',-0.370
'0:10.878',-0.375
'0:10.881',-0.385
'0:10.883',-0.390
'0:10.886',-0.385
'0:10.889',-0.410
'0:10.892',-0.445
'0:10.894',-0.480
'0:10.897',-0.515
'0:10.900',-0.555
'0:10.903',-0.585
'0:10.906',-0.600
'0:10.908',-0.600
'0:10.911',-0.625
'0:10.914',-0.620
'0:10.917',-0.655
'0:10.919',-0.670
'0:10.922',-0.715
'0:10.925',-0.725
'0:10.928',-0.725
'0:10.931',-0.730
'0:10.933',-0.735
'0:10.936',-0.750
'0:10.939',-0.775
'0:10.942',-0.795
'0:10.944',-0.790
'0:10.947',-0.790
'0:10.950',-0.795
'0:10.953',-0.815
'0:10.956',-0.815
'0:10.958',-0.815
'0:10.961',-0.810
'0:10.964',-0.810
'0:10.967',-0.810
'0:10.969',-0.830
'0:10.972',-0.825
'0:10.975',-0.820
'0:10.978',-0.805
'0:10.981',-0.790
'0:10.983',-0.810
'0:10.986',-0.805
'0:10.989',-0.805
'0:10.992',-0.790
'0:10.994',-0.765
'0:10.997',-0.730
'0:11.000',-0.710
'0:11.003',-0.690
'0:11.006',-0.640
'0:11.008',-0.510
'0:11.011',-0.230
'0:11.014',0.295
'0:11.017',0.920
'0:11.019',1.345
'0:11.022',1.355
'0:11.025',1.150
'0:11.028',0.950
'0:11.031',0.870
'0:11.033',0.810
'0:11.036',0.730
'0:11.039',0.625
'0:11.042',0.495
'0:11.044',0.415
'0:11.047',0.345
'0:11.050',0.265
'0:11.053',0.145
'0:11.056',0.015
'0:11.058',-0.105
'0:11.061',-0.245
'0:11.064',-0.355
'0:11.067',-0.500
'0:11.069',-0.640
'0:11.072',-0.810
'0:11.075',-0.965
'0:11.078',-1.120
'0:11.081',-1.265
'0:11.083',-1.440
'0:11.086',-1.595
'0:11.089',-1.760
'0:11.092',-1.910
'0:11.094',-2.070
'0:11.097',-2.195
'0:11.100',-2.290
'0:11.103',-2.340
'0:11.106',-2.380
'0:11.108',-2.405
'0:11.111',-2.425
'0:11.114',-2.485
'0:11.117',-2.590
'0:11.119',-2.690
'0:11.122',-2.780
'0:11.125',-2.830
'0:11.128',-2.880
'0:11.131',-2.900
'0:11.133',-2.920
'0:11.136',-2.855
'0:11.139',-2.745
'0:11.142',-2.590
'0:11.144',-2.430
'0:11.147',-2.235
'0:11.150',-2.055
'0:11.153',-1.900
'0:11.156',-1.815
'0:11.158',-1.750
'0:11.161',-1.670
'0:11.164',-1.590
'0:11.167',-1.520
'0:11.169',-1.475
'0:11.172',-1.450
'0:11.175',-1.405
'0:11.178',-1.375
'0:11.181',-1.355
'0:11.183',-1.320
'0:11.186',-1.275
'0:11.189',-1.210
'0:11.192',-1.145
'0:11.194',-1.060
'0:11.197',-0.985
'0:11.200',-0.925
'0:11.203',-0.865
'0:11.206',-0.815
'0:11.208',-0.745
'0:11.211',-0.665
'0:11.214',-0.570
'0:11.217',-0.495
'0:11.219',-0.450
'0:11.222',-0.405
'0:11.225',-0.340
'0:11.228',-0.275
'0:11.231',-0.235
'0:11.233',-0.205
'0:11.236',-0.205
'0:11.239',-0.195
'0:11.242',-0.160
'0:11.244',-0.130
'0:11.247',-0.110
'0:11.250',-0.105
'0:11.253',-0.090
'0:11.256',-0.085
'0:11.258',-0.050
'0:11.261',-0.020
'0:11.264',0.020
'0:11.267',0.050
'0:11.269',0.085
'0:11.272',0.080
'0:11.275',0.115
'0:11.278',0.130
'0:11.281',0.170
'0:11.283',0.210
'0:11.286',0.240
'0:11.289',0.250
'0:11.292',0.270
'0:11.294',0.295
'0:11.297',0.330
'0:11.300',0.365
'0:11.303',0.390
'0:11.306',0.430
'0:11.308',0.465
'0:11.311',0.505
'0:11.314',0.530
'0:11.317',0.570
'0:11.319',0.595
'0:11.322',0.625
'0:11.325',0.660
'0:11.328',0.685
'0:11.331',0.675
'0:11.333',0.695
'0:11.336',0.695
'0:11.339',0.715
'0:11.342',0.745
'0:11.344',0.765
'0:11.347',0.755
'0:11.350',0.735
'0:11.353',0.715
'0:11.356',0.675
'0:11.358',0.650
'0:11.361',0.650
'0:11.364',0.625
'0:11.367',0.595
'0:11.369',0.580
'0:11.372',0.540
'0:11.375',0.510
'0:11.378',0.495
'0:11.381',0.470
'0:11.383',0.430
'0:11.386',0.375
'0:11.389',0.330
'0:11.392',0.300
'0:11.394',0.260
'0:11.397',0.245
'0:11.400',0.170
'0:11.403',0.110
'0:11.406',0.045
'0:11.408',0.000
'0:11.411',-0.050
'0:11.414',-0.080
'0:11.417',-0.125
'0:11.419',-0.160
'0:11.422',-0.215
'0:11.425',-0.260
'0:11.428',-0.300
'0:11.431',-0.350
'0:11.433',-0.375
'0:11.436',-0.425
'0:11.439',-0.480
'0:11.442',-0.510
'0:11.444',-0.520
'0:11.447',-0.525
'0:11.450',-0.555
'0:11.453',-0.570
'0:11.456',-0.605
'0:11.458',-0.615
'0:11.461',-0.635
'0:11.464',-0.655
'0:11.467',-0.655
'0:11.469',-0.670
'0:11.472',-0.685
'0:11.475',-0.680
'0:11.478',-0.695
'0:11.481',-0.725
'0:11.483',-0.720
'0:11.486',-0.715
'0:11.489',-0.710
'0:11.492',-0.700
'0:11.494',-0.680
'0:11.497',-0.650
'0:11.500',-0.635
'0:11.503',-0.630
'0:11.506',-0.610
'0:11.508',-0.565
'0:11.511',-0.520
'0:11.514',-0.480
'0:11.517',-0.440
'0:11.519',-0.430
'0:11.522',-0.420
'0:11.525',-0.405
'0:11.528',-0.390
'0:11.531',-0.370
'0:11.533',-0.355
'0:11.536',-0.355
'0:11.539',-0.370
'0:11.542',-0.390
'0:11.544',-0.415
'0:11.547',-0.445
'0:11.550',-0.470
'0:11.553',-0.480
'0:11.556',-0.500
'0:11.558',-0.490
'0:11.561',-0.475
'0:11.564',-0.470
'0:11.567',-0.485
'0:11.569',-0.490
'0:11.572',-0.515
'0:11.575',-0.520
'0:11.578',-0.530
'0:11.581',-0.540
'0:11.583',-0.560
'0:11.586',-0.590
'0:11.589',-0.610
'0:11.592',-0.635
'0:11.594',-0.650
'0:11.597',-0.675
'0:11.600',-0.700
'0:11.603',-0.725
'0:11.606',-0.750
'0:11.608',-0.770
'0:11.611',-0.780
'0:11.614',-0.785
'0:11.617',-0.805
'0:11.619',-0.815
'0:11.622',-0.830
'0:11.625',-0.830
'0:11.628',-0.830
'0:11.631',-0.840
'0:11.633',-0.865
'0:11.636',-0.875
'0:11.639',-0.880
'0:11.642',-0.890
'0:11.644',-0.875
'0:11.647',-0.845
'0:11.650',-0.860
'0:11.653',-0.870
'0:11.656',-0.875
'0:11.658',-0.890
'0:11.661',-0.870
'0:11.664',-0.875
'0:11.667',-0.880
'0:11.669',-0.890
'0:11.672',-0.895
'0:11.675',-0.890
'0:11.678',-0.890
'0:11.681',-0.890
'0:11.683',-0.900
'0:11.686',-0.910
'0:11.689',-0.915
'0:11.692',-0.910
'0:11.694',-0.895
'0:11.697',-0.875
'0:11.700',-0.885
'0:11.703',-0.900
'0:11.706',-0.900
'0:11.708',-0.900
'0:11.711',-0.910
'0:11.714',-0.910
'0:11.717',-0.910
'0:11.719',-0.910
'0:11.722',-0.915
'0:11.725',-0.905
'0:11.728',-0.890
'0:11.731',-0.895
'0:11.733',-0.890
'0:11.736',-0.900
'0:11.739',-0.910
'0:11.742',-0.900
'0:11.744',-0.880
'0:11.747',-0.885
'0:11.750',-0.870
'0:11.753',-0.880
'0:11.756',-0.880
'0:11.758',-0.865
'0:11.761',-0.855
'0:11.764',-0.845
'0:11.767',-0.870
'0:11.769',-0.885
'0:11.772',-0.890
'0:11.775',-0.870
'0:11.778',-0.870
'0:11.781',-0.855
'0:11.783',-0.860
'0:11.786',-0.860
'0:11.789',-0.860
'0:11.792',-0.845
'0:11.794',-0.835
'0:11.797',-0.825
'0:11.800',-0.800
'0:11.803',-0.795
'0:11.806',-0.815
'0:11.808',-0.800
'0:11.811',-0.785
'0:11.814',-0.770
'0:11.817',-0.770
'0:11.819',-0.755
'0:11.822',-0.735
'0:11.825',-0.705
'0:11.828',-0.630
'0:11.831',-0.520
'0:11.833',-0.265
'0:11.836',0.260
'0:11.839',0.895
'0:11.842',1.460
'0:11.844',1.530
'0:11.847',1.315
'0:11.850',1.095
'0:11.853',1.005
'0:11.856',0.950
'0:11.858',0.855
'0:11.861',0.770
'0:11.864',0.655
'0:11.867',0.555
'0:11.869',0.435
'0:11.872',0.330
'0:11.875',0.215
'0:11.878',0.095
'0:11.881',-0.025
'0:11.883',-0.180
'0:11.886',-0.345
'0:11.889',-0.525
'0:11.892',-0.700
'0:11.894',-0.880
'0:11.897',-1.080
'0:11.900',-1.290
'0:11.903',-1.505
'0:11.906',-1.685
'0:11.908',-1.840
'0:11.911',-2.005
'0:11.914',-2.155
'0:11.917',-2.270
'0:11.919',-2.350
'0:11.922',-2.405
'0:11.925',-2.425
'0:11.928',-2.440
'0:11.931',-2.475
'0:11.933',-2.530
'0:11.936',-2.610
'0:11.939',-2.695
'0:11.942',-2.755
'0:11.944',-2.785
'0:11.947',-2.800
'0:11.950',-2.820
'0:11.953',-2.785
'0:11.956',-2.725
'0:11.958',-2.575
'0:11.961',-2.420
'0:11.964',-2.235
'0:11.967',-2.015
'0:11.969',-1.795
'0:11.972',-1.675
'0:11.975',-1.585
'0:11.978',-1.530
'0:11.981',-1.450
'0:11.983',-1.390
'0:11.986',-1.335
'0:11.989',-1.290
'0:11.992',-1.225
'0:11.994',-1.180
'0:11.997',-1.160
'0:12.000',-1.125
'0:12.003',-1.080
'0:12.006',-1.035
'0:12.008',-0.950
'0:12.011',-0.875
'0:12.014',-0.810
'0:12.017',-0.755
'0:12.019',-0.695
'0:12.022',-0.625
'0:12.025',-0.560
'0:12.028',-0.480
'0:12.031',-0.385
'0:12.033',-0.300
'0:12.036',-0.220
'0:12.039',-0.170
'0:12.042',-0.100
'0:12.044',-0.055
'0:12.047',-0.030
'0:12.050',-0.005
'0:12.053',0.005
'0:12.056',0.020
'0:12.058',0.055
'0:12.061',0.075
'0:12.064',0.100
'0:12.067',0.115
'0:12.069',0.130
'0:12.072',0.160
'0:12.075',0.175
'0:12.078',0.215
'0:12.081',0.250
'0:12.083',0.285
'0:12.086',0.300
'0:12.089',0.330
'0:12.092',0.365
'0:12.094',0.395
'0:12.097',0.425
'0:12.100',0.455
'0:12.103',0.485
'0:12.106',0.505
'0:12.108',0.545
'0:12.111',0.575
'0:12.114',0.615
'0:12.117',0.655
'0:12.119',0.690
'0:12.122',0.720
'0:12.125',0.740
'0:12.128',0.780
'0:12.131',0.810
'0:12.133',0.840
'0:12.136',0.870
'0:12.139',0.880
'0:12.142',0.900
'0:12.144',0.925
'0:12.147',0.955
'0:12.150',0.960
'0:12.153',0.965
'0:12.156',0.965
'0:12.158',0.985
'0:12.161',1.005
'0:12.164',1.010
'0:12.167',1.000
'0:12.169',0.990
'0:12.172',0.980
'0:12.175',0.980
'0:12.178',0.985
'0:12.181',0.975
'0:12.183',0.955
'0:12.186',0.940
'0:12.189',0.940
'0:12.192',0.955
'0:12.194',0.970
'0:12.197',0.980
'0:12.200',0.965
'0:12.203',0.940
'0:12.206',0.895
'0:12.208',0.880
'0:12.211',0.860
'0:12.214',0.855
'0:12.217',0.790
'0:12.219',0.735
'0:12.222',0.650
'0:12.225',0.570
'0:12.228',0.510
'0:12.231',0.465
'0:12.233',0.400
'0:12.236',0.335
'0:12.239',0.275
'0:12.242',0.245
'0:12.244',0.215
'0:12.247',0.165
'0:12.250',0.105
'0:12.253',0.045
'0:12.256',-0.010
'0:12.258',-0.055
'0:12.261',-0.100
'0:12.264',-0.145
'0:12.267',-0.185
'0:12.269',-0.235
'0:12.272',-0.295
'0:12.275',-0.320
'0:12.278',-0.355
'0:12.281',-0.375
'0:12.283',-0.420
'0:12.286',-0.460
'0:12.289',-0.490
'0:12.292',-0.515
'0:12.294',-0.535
'0:12.297',-0.565
'0:12.300',-0.580
'0:12.303',-0.625
'0:12.306',-0.665
'0:12.308',-0.680
'0:12.311',-0.685
'0:12.314',-0.660
'0:12.317',-0.625
'0:12.319',-0.620
'0:12.322',-0.615
'0:12.325',-0.620
'0:12.328',-0.630
'0:12.331',-0.650
'0:12.333',-0.665
'0:12.336',-0.680
'0:12.339',-0.685
'0:12.342',-0.665
'0:12.344',-0.655
'0:12.347',-0.640
'0:12.350',-0.660
'0:12.353',-0.670
'0:12.356',-0.675
'0:12.358',-0.680
'0:12.361',-0.680
'0:12.364',-0.670
'0:12.367',-0.665
'0:12.369',-0.675
'0:12.372',-0.680
'0:12.375',-0.660
'0:12.378',-0.645
'0:12.381',-0.635
'0:12.383',-0.635
'0:12.386',-0.645
'0:12.389',-0.655
'0:12.392',-0.660
'0:12.394',-0.650
'0:12.397',-0.655
'0:12.400',-0.670
'0:12.403',-0.680
'0:12.406',-0.670
'0:12.408',-0.650
'0:12.411',-0.640
'0:12.414',-0.630
'0:12.417',-0.640
'0:12.419',-0.645
'0:12.422',-0.655
'0:12.425',-0.665
'0:12.428',-0.665
'0:12.431',-0.640
'0:12.433',-0.635
'0:12.436',-0.645
'0:12.439',-0.640
'0:12.442',-0.645
'0:12.444',-0.645
'0:12.447',-0.640
'0:12.450',-0.630
'0:12.453',-0.630
'0:12.456',-0.635
'0:12.458',-0.635
'0:12.461',-0.625
'0:12.464',-0.625
'0:12.467',-0.640
'0:12.469',-0.645
'0:12.472',-0.650
'0:12.475',-0.635
'0:12.478',-0.620
'0:12.481',-0.625
'0:12.483',-0.625
'0:12.486',-0.630
'0:12.489',-0.640
'0:12.492',-0.625
'0:12.494',-0.620
'0:12.497',-0.630
'0:12.500',-0.615
'0:12.503',-0.605
'0:12.506',-0.600
'0:12.508',-0.600
'0:12.511',-0.570
'0:12.514',-0.565
'0:12.517',-0.565
'0:12.519',-0.580
'0:12.522',-0.595
'0:12.525',-0.590
'0:12.528',-0.580
'0:12.531',-0.580
'0:12.533',-0.580
'0:12.536',-0.605
'0:12.539',-0.605
'0:12.542',-0.565
'0:12.544',-0.550
'0:12.547',-0.545
'0:12.550',-0.540
'0:12.553',-0.555
'0:12.556',-0.565
'0:12.558',-0.550
'0:12.561',-0.530
'0:12.564',-0.520
'0:12.567',-0.535
'0:12.569',-0.545
'0:12.572',-0.545
'0:12.575',-0.530
'0:12.578',-0.540
'0:12.581',-0.550
'0:12.583',-0.520
'0:12.586',-0.495
'0:12.589',-0.485
'0:12.592',-0.485
'0:12.594',-0.490
'0:12.597',-0.495
'0:12.600',-0.500
'0:12.603',-0.495
'0:12.606',-0.505
'0:12.608',-0.480
'0:12.611',-0.480
'0:12.614',-0.485
'0:12.617',-0.480
'0:12.619',-0.470
'0:12.622',-0.460
'0:12.625',-0.435
'0:12.628',-0.420
'0:12.631',-0.410
'0:12.633',-0.360
'0:12.636',-0.335
'0:12.639',-0.290
'0:12.642',-0.180
'0:12.644',0.100
'0:12.647',0.635
'0:12.650',1.270
'0:12.653',1.770
'0:12.656',1.810
'0:12.658',1.620
'0:12.661',1.490
'0:12.664',1.425
'0:12.667',1.365
'0:12.669',1.285
'0:12.672',1.140
'0:12.675',1.030
'0:12.678',0.940
'0:12.681',0.850
'0:12.683',0.755
'0:12.686',0.640
'0:12.689',0.495
'0:12.692',0.350
'0:12.694',0.190
'0:12.697',-0.015
'0:12.700',-0.245
'0:12.703',-0.465
'0:12.706',-0.675
'0:12.708',-0.875
'0:12.711',-1.080
'0:12.714',-1.300
'0:12.717',-1.520
'0:12.719',-1.695
'0:12.722',-1.840
'0:12.725',-1.950
'0:12.728',-2.015
'0:12.731',-2.080
'0:12.733',-2.140
'0:12.736',-2.200
'0:12.739',-2.225
'0:12.742',-2.225
'0:12.744',-2.255
'0:12.747',-2.340
'0:12.750',-2.440
'0:12.753',-2.525
'0:12.756',-2.585
'0:12.758',-2.635
'0:12.761',-2.680
'0:12.764',-2.710
'0:12.767',-2.690
'0:12.769',-2.605
'0:12.772',-2.435
'0:12.775',-2.180
'0:12.778',-1.955
'0:12.781',-1.735
'0:12.783',-1.580
'0:12.786',-1.460
'0:12.789',-1.375
'0:12.792',-1.300
'0:12.794',-1.260
'0:12.797',-1.225
'0:12.800',-1.170
'0:12.803',-1.095
'0:12.806',-1.040
'0:12.808',-1.015
'0:12.811',-1.020
'0:12.814',-0.990
'0:12.817',-0.920
'0:12.819',-0.850
'0:12.822',-0.765
'0:12.825',-0.680
'0:12.828',-0.620
'0:12.831',-0.570
'0:12.833',-0.530
'0:12.836',-0.480
'0:12.839',-0.410
'0:12.842',-0.325
'0:12.844',-0.200
'0:12.847',-0.090
'0:12.850',-0.025
'0:12.853',0.005
'0:12.856',0.030
'0:12.858',0.070
'0:12.861',0.140
'0:12.864',0.185
'0:12.867',0.235
'0:12.869',0.260
'0:12.872',0.285
'0:12.875',0.335
'0:12.878',0.380
'0:12.881',0.405
'0:12.883',0.415
'0:12.886',0.455
'0:12.889',0.515
'0:12.892',0.610
'0:12.894',0.655
'0:12.897',0.675
'0:12.900',0.695
'0:12.903',0.740
'0:12.906',0.790
'0:12.908',0.845
'0:12.911',0.880
'0:12.914',0.885
'0:12.917',0.900
'0:12.919',0.925
'0:12.922',0.980
'0:12.925',1.015
'0:12.928',1.045
'0:12.931',1.040
'0:12.933',1.020
'0:12.936',1.035
'0:12.939',1.045
'0:12.942',1.095
'0:12.944',1.140
'0:12.947',1.175
'0:12.950',1.190
'0:12.953',1.215
'0:12.956',1.250
'0:12.958',1.270
'0:12.961',1.255
'0:12.964',1.250
'0:12.967',1.230
'0:12.969',1.240
'0:12.972',1.235
'0:12.975',1.215
'0:12.978',1.185
'0:12.981',1.155
'0:12.983',1.155
'0:12.986',1.140
'0:12.989',1.130
'0:12.992',1.135
'0:12.994',1.145
'0:12.997',1.115
'0:13.000',1.080
'0:13.003',1.055
'0:13.006',1.020
'0:13.008',0.990
'0:13.011',0.930
'0:13.014',0.865
'0:13.017',0.820
'0:13.019',0.815
'0:13.022',0.815
'0:13.025',0.790
'0:13.028',0.710
'0:13.031',0.610
'0:13.033',0.535
'0:13.036',0.525
'0:13.039',0.510
'0:13.042',0.500
'0:13.044',0.455
'0:13.047',0.385
'0:13.050',0.360
'0:13.053',0.330
'0:13.056',0.250
'0:13.058',0.130
'0:13.061',0.060
'0:13.064',0.035
'0:13.067',0.065
'0:13.069',0.070
'0:13.072',0.020
'0:13.075',-0.030
'0:13.078',-0.085
'0:13.081',-0.120
'0:13.083',-0.145
'0:13.086',-0.210
'0:13.089',-0.285
'0:13.092',-0.300
'0:13.094',-0.260
'0:13.097',-0.220
'0:13.100',-0.210
'0:13.103',-0.270
'0:13.106',-0.330
'0:13.108',-0.345
'0:13.111',-0.365
'0:13.114',-0.390
'0:13.117',-0.420
'0:13.119',-0.410
'0:13.122',-0.390
'0:13.125',-0.345
'0:13.128',-0.375
'0:13.131',-0.400
'0:13.133',-0.445
'0:13.136',-0.470
'0:13.139',-0.490
'0:13.142',-0.460
'0:13.144',-0.460
'0:13.147',-0.455
'0:13.150',-0.455
'0:13.153',-0.455
'0:13.156',-0.465
'0:13.158',-0.465
'0:13.161',-0.470
'0:13.164',-0.495
'0:13.167',-0.490
'0:13.169',-0.440
'0:13.172',-0.425
'0:13.175',-0.420
'0:13.178',-0.470
'0:13.181',-0.510
'0:13.183',-0.490
'0:13.186',-0.455
'0:13.189',-0.415
'0:13.192',-0.385
'0:13.194',-0.390
'0:13.197',-0.410
'0:13.200',-0.445
'0:13.203',-0.455
'0:13.206',-0.445
'0:13.208',-0.405
'0:13.211',-0.400
'0:13.214',-0.425
'0:13.217',-0.445
'0:13.219',-0.465
'0:13.222',-0.440
'0:13.225',-0.425
'0:13.228',-0.400
'0:13.231',-0.395
'0:13.233',-0.395
'0:13.236',-0.395
'0:13.239',-0.390
'0:13.242',-0.365
'0:13.244',-0.345
'0:13.247',-0.320
'0:13.250',-0.345
'0:13.253',-0.375
'0:13.256',-0.410
'0:13.258',-0.370
'0:13.261',-0.340
'0:13.264',-0.320
'0:13.267',-0.345
'0:13.269',-0.360
'0:13.272',-0.355
'0:13.275',-0.365
'0:13.278',-0.365
'0:13.281',-0.390
'0:13.283',-0.410
'0:13.286',-0.405
'0:13.289',-0.420
'0:13.292',-0.410
'0:13.294',-0.395
'0:13.297',-0.380
'0:13.300',-0.385
'0:13.303',-0.370
'0:13.306',-0.340
'0:13.308',-0.315
'0:13.311',-0.315
'0:13.314',-0.355
'0:13.317',-0.370
'0:13.319',-0.360
'0:13.322',-0.345
'0:13.325',-0.345
'0:13.328',-0.355
'0:13.331',-0.355
'0:13.333',-0.365
'0:13.336',-0.370
'0:13.339',-0.375
'0:13.342',-0.370
'0:13.344',-0.355
'0:13.347',-0.330
'0:13.350',-0.320
'0:13.353',-0.345
'0:13.356',-0.360
'0:13.358',-0.360
'0:13.361',-0.355
'0:13.364',-0.350
'0:13.367',-0.340
'0:13.369',-0.345
'0:13.372',-0.355
'0:13.375',-0.330
'0:13.378',-0.310
'0:13.381',-0.295
'0:13.383',-0.310
'0:13.386',-0.330
'0:13.389',-0.365
'0:13.392',-0.345
'0:13.394',-0.335
'0:13.397',-0.320
'0:13.400',-0.315
'0:13.403',-0.315
'0:13.406',-0.310
'0:13.408',-0.310
'0:13.411',-0.300
'0:13.414',-0.300
'0:13.417',-0.320
'0:13.419',-0.315
'0:13.422',-0.330
'0:13.425',-0.320
'0:13.428',-0.300
'0:13.431',-0.305
'0:13.433',-0.315
'0:13.436',-0.320
'0:13.439',-0.310
'0:13.442',-0.305
'0:13.444',-0.295
'0:13.447',-0.290
'0:13.450',-0.275
'0:13.453',-0.270
'0:13.456',-0.270
'0:13.458',-0.240
'0:13.461',-0.205
'0:13.464',-0.195
'0:13.467',-0.195
'0:13.469',-0.185
'0:13.472',-0.140
'0:13.475',0.015
'0:13.478',0.360
'0:13.481',0.930
'0:13.483',1.545
'0:13.486',1.935
'0:13.489',1.975
'0:13.492',1.885
'0:13.494',1.765
'0:13.497',1.710
'0:13.500',1.655
'0:13.503',1.570
'0:13.506',1.455
'0:13.508',1.345
'0:13.511',1.245
'0:13.514',1.155
'0:13.517',1.045
'0:13.519',0.930
'0:13.522',0.785
'0:13.525',0.630
'0:13.528',0.475
'0:13.531',0.295
'0:13.533',0.105
'0:13.536',-0.125
'0:13.539',-0.355
'0:13.542',-0.585
'0:13.544',-0.810
'0:13.547',-1.060
'0:13.550',-1.310
'0:13.553',-1.540
'0:13.556',-1.740
'0:13.558',-1.900
'0:13.561',-2.030
'0:13.564',-2.125
'0:13.567',-2.230
'0:13.569',-2.285
'0:13.572',-2.300
'0:13.575',-2.285
'0:13.578',-2.280
'0:13.581',-2.330
'0:13.583',-2.420
'0:13.586',-2.510
'0:13.589',-2.580
'0:13.592',-2.625
'0:13.594',-2.660
'0:13.597',-2.700
'0:13.600',-2.705
'0:13.603',-2.635
'0:13.606',-2.470
'0:13.608',-2.210
'0:13.611',-1.935
'0:13.614',-1.665
'0:13.617',-1.430
'0:13.619',-1.225
'0:13.622',-1.060
'0:13.625',-0.945
'0:13.628',-0.855
'0:13.631',-0.765
'0:13.633',-0.680
'0:13.636',-0.600
'0:13.639',-0.535
'0:13.642',-0.495
'0:13.644',-0.480
'0:13.647',-0.465
'0:13.650',-0.470
'0:13.653',-0.460
'0:13.656',-0.450
'0:13.658',-0.395
'0:13.661',-0.295
'0:13.664',-0.215
'0:13.667',-0.155
'0:13.669',-0.130
'0:13.672',-0.090
'0:13.675',-0.030
'0:13.678',0.005
'0:13.681',0.065
'0:13.683',0.115
'0:13.686',0.140
'0:13.689',0.160
'0:13.692',0.215
'0:13.694',0.255
'0:13.697',0.310
'0:13.700',0.320
'0:13.703',0.310
'0:13.706',0.305
'0:13.708',0.325
'0:13.711',0.315
'0:13.714',0.320
'0:13.717',0.325
'0:13.719',0.330
'0:13.722',0.340
'0:13.725',0.340
'0:13.728',0.355
'0:13.731',0.370
'0:13.733',0.385
'0:13.736',0.395
'0:13.739',0.405
'0:13.742',0.435
'0:13.744',0.470
'0:13.747',0.520
'0:13.750',0.525
'0:13.753',0.545
'0:13.756',0.555
'0:13.758',0.585
'0:13.761',0.615
'0:13.764',0.650
'0:13.767',0.670
'0:13.769',0.700
'0:13.772',0.715
'0:13.775',0.755
'0:13.778',0.785
'0:13.781',0.805
'0:13.783',0.825
'0:13.786',0.840
'0:13.789',0.840
'0:13.792',0.880
'0:13.794',0.940
'0:13.797',0.980
'0:13.800',0.995
'0:13.803',0.985
'0:13.806',0.990
'0:13.808',1.020
'0:13.811',1.030
'0:13.814',1.060
'0:13.817',1.045
'0:13.819',1.050
'0:13.822',1.040
'0:13.825',1.040
'0:13.828',1.040
'0:13.831',1.040
'0:13.833',1.020
'0:13.836',0.995
'0:13.839',0.970
'0:13.842',0.960
'0:13.844',0.955
'0:13.847',0.930
'0:13.850',0.875
'0:13.853',0.830
'0:13.856',0.785
'0:13.858',0.775
'0:13.861',0.760
'0:13.864',0.710
'0:13.867',0.675
'0:13.869',0.615
'0:13.872',0.575
'0:13.875',0.535
'0:13.878',0.505
'0:13.881',0.450
'0:13.883',0.415
'0:13.886',0.365
'0:13.889',0.315
'0:13.892',0.275
'0:13.894',0.225
'0:13.897',0.175
'0:13.900',0.130
'0:13.903',0.105
'0:13.906',0.055
'0:13.908',0.035
'0:13.911',-0.015
'0:13.914',-0.050
'0:13.917',-0.100
'0:13.919',-0.130
'0:13.922',-0.180
'0:13.925',-0.205
'0:13.928',-0.230
'0:13.931',-0.240
'0:13.933',-0.255
'0:13.936',-0.285
'0:13.939',-0.325
'0:13.942',-0.350
'0:13.944',-0.360
'0:13.947',-0.345
'0:13.950',-0.365
'0:13.953',-0.390
'0:13.956',-0.405
'0:13.958',-0.415
'0:13.961',-0.420
'0:13.964',-0.420
'0:13.967',-0.430
'0:13.969',-0.425
'0:13.972',-0.440
'0:13.975',-0.455
'0:13.978',-0.435
'0:13.981',-0.435
'0:13.983',-0.450
'0:13.986',-0.465
'0:13.989',-0.480
'0:13.992',-0.475
'0:13.994',-0.455
'0:13.997',-0.450
'0:14.000',-0.455
'0:14.003',-0.470
'0:14.006',-0.490
'0:14.008',-0.485
'0:14.011',-0.485
'0:14.014',-0.480
'0:14.017',-0.485
'0:14.019',-0.495
'0:14.022',-0.500
'0:14.025',-0.500
'0:14.028',-0.500
'0:14.031',-0.490
'0:14.033',-0.485
'0:14.036',-0.485
'0:14.039',-0.510
'0:14.042',-0.500
'0:14.044',-0.490
'0:14.047',-0.475
'0:14.050',-0.465
'0:14.053',-0.470
'0:14.056',-0.470
'0:14.058',-0.475
'0:14.061',-0.470
'0:14.064',-0.470
'0:14.067',-0.470
'0:14.069',-0.470
'0:14.072',-0.470
'0:14.075',-0.465
'0:14.078',-0.470
'0:14.081',-0.455
'0:14.083',-0.460
'0:14.086',-0.455
'0:14.089',-0.470
'0:14.092',-0.455
'0:14.094',-0.430
'0:14.097',-0.400
'0:14.100',-0.425
'0:14.103',-0.440
'0:14.106',-0.450
'0:14.108',-0.450
'0:14.111',-0.455
'0:14.114',-0.450
'0:14.117',-0.440
'0:14.119',-0.455
'0:14.122',-0.465
'0:14.125',-0.460
'0:14.128',-0.460
'0:14.131',-0.455
'0:14.133',-0.460
'0:14.136',-0.475
'0:14.139',-0.490
'0:14.142',-0.490
'0:14.144',-0.485
'0:14.147',-0.480
'0:14.150',-0.475
'0:14.153',-0.455
'0:14.156',-0.465
'0:14.158',-0.470
'0:14.161',-0.475
'0:14.164',-0.490
'0:14.167',-0.475
'0:14.169',-0.485
'0:14.172',-0.500
'0:14.175',-0.495
'0:14.178',-0.490
'0:14.181',-0.490
'0:14.183',-0.490
'0:14.186',-0.490
'0:14.189',-0.490
'0:14.192',-0.500
'0:14.194',-0.485
'0:14.197',-0.480
'0:14.200',-0.490
'0:14.203',-0.495
'0:14.206',-0.505
'0:14.208',-0.500
'0:14.211',-0.490
'0:14.214',-0.475
'0:14.217',-0.470
'0:14.219',-0.475
'0:14.222',-0.490
'0:14.225',-0.485
'0:14.228',-0.485
'0:14.231',-0.480
'0:14.233',-0.485
'0:14.236',-0.480
'0:14.239',-0.495
'0:14.242',-0.485
'0:14.244',-0.480
'0:14.247',-0.485
'0:14.250',-0.495
'0:14.253',-0.505
'0:14.256',-0.525
'0:14.258',-0.510
'0:14.261',-0.485
'0:14.264',-0.480
'0:14.267',-0.475
'0:14.269',-0.475
'0:14.272',-0.490
'0:14.275',-0.490
'0:14.278',-0.485
'0:14.281',-0.485
'0:14.283',-0.480
'0:14.286',-0.470
'0:14.289',-0.470
'0:14.292',-0.460
'0:14.294',-0.455
'0:14.297',-0.460
'0:14.300',-0.465
'0:14.303',-0.450
'0:14.306',-0.465
'0:14.308',-0.455
'0:14.311',-0.455
'0:14.314',-0.445
'0:14.317',-0.445
'0:14.319',-0.445
'0:14.322',-0.435
'0:14.325',-0.425
'0:14.328',-0.375
'0:14.331',-0.345
'0:14.333',-0.280
'0:14.336',-0.150
'0:14.339',0.135
'0:14.342',0.645
'0:14.344',1.215
'0:14.347',1.630
'0:14.350',1.735
'0:14.353',1.635
'0:14.356',1.520
'0:14.358',1.480
'0:14.361',1.460
'0:14.364',1.400
'0:14.367',1.325
'0:14.369',1.210
'0:14.372',1.135
'0:14.375',1.080
'0:14.378',1.035
'0:14.381',0.960
'0:14.383',0.845
'0:14.386',0.710
'0:14.389',0.560
'0:14.392',0.405
'0:14.394',0.250
'0:14.397',0.090
'0:14.400',-0.080
'0:14.403',-0.260
'0:14.406',-0.470
'0:14.408',-0.690
'0:14.411',-0.905
'0:14.414',-1.125
'0:14.417',-1.350
'0:14.419',-1.570
'0:14.422',-1.760
'0:14.425',-1.930
'0:14.428',-2.080
'0:14.431',-2.190
'0:14.433',-2.270
'0:14.436',-2.360
'0:14.439',-2.420
'0:14.442',-2.450
'0:14.444',-2.480
'0:14.447',-2.535
'0:14.450',-2.615
'0:14.453',-2.690
'0:14.456',-2.755
'0:14.458',-2.800
'0:14.461',-2.825
'0:14.464',-2.865
'0:14.467',-2.920
'0:14.469',-2.960
'0:14.472',-2.955
'0:14.475',-2.875
'0:14.478',-2.745
'0:14.481',-2.580
'0:14.483',-2.400
'0:14.486',-2.215
'0:14.489',-2.065
'0:14.492',-1.910
'0:14.494',-1.765
'0:14.497',-1.650
'0:14.500',-1.560
'0:14.503',-1.485
'0:14.506',-1.440
'0:14.508',-1.370
'0:14.511',-1.290
'0:14.514',-1.215
'0:14.517',-1.170
'0:14.519',-1.145
'0:14.522',-1.155
'0:14.525',-1.135
'0:14.528',-1.095
'0:14.531',-1.030
'0:14.533',-0.975
'0:14.536',-0.925
'0:14.539',-0.850
'0:14.542',-0.765
'0:14.544',-0.715
'0:14.547',-0.660
'0:14.550',-0.600
'0:14.553',-0.540
'0:14.556',-0.475
'0:14.558',-0.375
'0:14.561',-0.310
'0:14.564',-0.230
'0:14.567',-0.180
'0:14.569',-0.145
'0:14.572',-0.100
'0:14.575',-0.045
'0:14.578',0.010
'0:14.581',0.045
'0:14.583',0.040
'0:14.586',0.055
'0:14.589',0.070
'0:14.592',0.095
'0:14.594',0.105
'0:14.597',0.125
'0:14.600',0.145
'0:14.603',0.155
'0:14.606',0.160
'0:14.608',0.175
'0:14.611',0.205
'0:14.614',0.240
'0:14.617',0.270
'0:14.619',0.290
'0:14.622',0.305
'0:14.625',0.320
'0:14.628',0.345
'0:14.631',0.375
'0:14.633',0.415
'0:14.636',0.415
'0:14.639',0.445
'0:14.642',0.485
'0:14.644',0.525
'0:14.647',0.560
'0:14.650',0.585
'0:14.653',0.610
'0:14.656',0.635
'0:14.658',0.660
'0:14.661',0.705
'0:14.664',0.760
'0:14.667',0.815
'0:14.669',0.855
'0:14.672',0.865
'0:14.675',0.900
'0:14.678',0.920
'0:14.681',0.935
'0:14.683',0.975
'0:14.686',0.985
'0:14.689',1.005
'0:14.692',1.040
'0:14.694',1.055
'0:14.697',1.060
'0:14.700',1.055
'0:14.703',1.045
'0:14.706',1.035
'0:14.708',1.045
'0:14.711',1.070
'0:14.714',1.070
'0:14.717',1.060
'0:14.719',1.030
'0:14.722',1.015
'0:14.725',1.000
'0:14.728',0.985
'0:14.731',0.980
'0:14.733',0.955
'0:14.736',0.900
'0:14.739',0.885
'0:14.742',0.860
'0:14.744',0.835
'0:14.747',0.795
'0:14.750',0.750
'0:14.753',0.710
'0:14.756',0.655
'0:14.758',0.625
'0:14.761',0.595
'0:14.764',0.565
'0:14.767',0.525
'0:14.769',0.480
'0:14.772',0.405
'0:14.775',0.355
'0:14.778',0.320
'0:14.781',0.265
'0:14.783',0.240
'0:14.786',0.185
'0:14.789',0.145
'0:14.792',0.110
'0:14.794',0.065
'0:14.797',0.030
'0:14.800',-0.020
'0:14.803',-0.085
'0:14.806',-0.115
'0:14.808',-0.150
'0:14.811',-0.175
'0:14.814',-0.190
'0:14.817',-0.225
'0:14.819',-0.240
'0:14.822',-0.255
'0:14.825',-0.260
'0:14.828',-0.270
'0:14.831',-0.310
'0:14.833',-0.335
'0:14.836',-0.360
'0:14.839',-0.380
'0:14.842',-0.405
'0:14.844',-0.405
'0:14.847',-0.390
'0:14.850',-0.380
'0:14.853',-0.410
'0:14.856',-0.420
'0:14.858',-0.405
'0:14.861',-0.405
'0:14.864',-0.400
'0:14.867',-0.415
'0:14.869',-0.435
'0:14.872',-0.450
'0:14.875',-0.450
'0:14.878',-0.435
'0:14.881',-0.430
'0:14.883',-0.440
'0:14.886',-0.445
'0:14.889',-0.465
'0:14.892',-0.460
'0:14.894',-0.440
'0:14.897',-0.445
'0:14.900',-0.435
'0:14.903',-0.450
'0:14.906',-0.455
'0:14.908',-0.445
'0:14.911',-0.430
'0:14.914',-0.430
'0:14.917',-0.445
'0:14.919',-0.450
'0:14.922',-0.450
'0:14.925',-0.445
'0:14.928',-0.430
'0:14.931',-0.420
'0:14.933',-0.425
'0:14.936',-0.420
'0:14.939',-0.425
'0:14.942',-0.415
'0:14.944',-0.425
'0:14.947',-0.430
'0:14.950',-0.430
'0:14.953',-0.410
'0:14.956',-0.410
'0:14.958',-0.400
'0:14.961',-0.380
'0:14.964',-0.380
'0:14.967',-0.380
'0:14.969',-0.390
'0:14.972',-0.400
'0:14.975',-0.390
'0:14.978',-0.395
'0:14.981',-0.380
'0:14.983',-0.370
'0:14.986',-0.385
'0:14.989',-0.385
'0:14.992',-0.390
'0:14.994',-0.385
'0:14.997',-0.385
'0:15.000',-0.390
'0:15.003',-0.390
'0:15.006',-0.400
'0:15.008',-0.405
'0:15.011',-0.390
'0:15.014',-0.395
'0:15.017',-0.405
'0:15.019',-0.420
'0:15.022',-0.420
'0:15.025',-0.415
'0:15.028',-0.400
'0:15.031',-0.400
'0:15.033',-0.405
'0:15.036',-0.420
'0:15.039',-0.430
'0:15.042',-0.410
'0:15.044',-0.405
'0:15.047',-0.415
'0:15.050',-0.415
'0:15.053',-0.425
'0:15.056',-0.415
'0:15.058',-0.415
'0:15.061',-0.415
'0:15.064',-0.415
'0:15.067',-0.405
'0:15.069',-0.410
'0:15.072',-0.415
'0:15.075',-0.410
'0:15.078',-0.400
'0:15.081',-0.400
'0:15.083',-0.395
'0:15.086',-0.395
'0:15.089',-0.395
'0:15.092',-0.375
'0:15.094',-0.350
'0:15.097',-0.335
'0:15.100',-0.325
'0:15.103',-0.305
'0:15.106',-0.280
'0:15.108',-0.235
'0:15.111',-0.180
'0:15.114',-0.135
'0:15.117',-0.110
'0:15.119',-0.110
'0:15.122',-0.105
'0:15.125',-0.090
'0:15.128',-0.070
'0:15.131',-0.045
'0:15.133',-0.030
'0:15.136',-0.005
'0:15.139',0.000
'0:15.142',0.005
'0:15.144',0.000
'0:15.147',-0.010
'0:15.150',-0.050
'0:15.153',-0.065
'0:15.156',-0.085
'0:15.158',-0.075
'0:15.161',-0.065
'0:15.164',-0.065
'0:15.167',-0.075
'0:15.169',-0.090
'0:15.172',-0.105
'0:15.175',-0.105
'0:15.178',-0.100
'0:15.181',-0.105
'0:15.183',-0.140
'0:15.186',-0.170
'0:15.189',-0.205
'0:15.192',-0.225
'0:15.194',-0.225
'0:15.197',-0.250
'0:15.200',-0.270
'0:15.203',-0.305
'0:15.206',-0.315
'0:15.208',-0.325
'0:15.211',-0.325
'0:15.214',-0.330
'0:15.217',-0.345
'0:15.219',-0.335
'0:15.222',-0.310
'0:15.225',-0.255
'0:15.228',-0.145
'0:15.231',0.120
'0:15.233',0.585
'0:15.236',1.155
'0:15.239',1.575
'0:15.242',1.695
'0:15.244',1.570
'0:15.247',1.415
'0:15.250',1.320
'0:15.253',1.260
'0:15.256',1.200
'0:15.258',1.135
'0:15.261',1.060
'0:15.264',0.970
'0:15.267',0.885
'0:15.269',0.795
'0:15.272',0.715
'0:15.275',0.655
'0:15.278',0.575
'0:15.281',0.495
'0:15.283',0.380
'0:15.286',0.260
'0:15.289',0.145
'0:15.292',0.025
'0:15.294',-0.080
'0:15.297',-0.205
'0:15.300',-0.345
'0:15.303',-0.500
'0:15.306',-0.625
'0:15.308',-0.765
'0:15.311',-0.910
'0:15.314',-1.100
'0:15.317',-1.275
'0:15.319',-1.440
'0:15.322',-1.615
'0:15.325',-1.765
'0:15.328',-1.865
'0:15.331',-1.940
'0:15.333',-2.015
'0:15.336',-2.065
'0:15.339',-2.115
'0:15.342',-2.125
'0:15.344',-2.140
'0:15.347',-2.205
'0:15.350',-2.325
'0:15.353',-2.415
'0:15.356',-2.490
'0:15.358',-2.535
'0:15.361',-2.600
'0:15.364',-2.645
'0:15.367',-2.675
'0:15.369',-2.670
'0:15.372',-2.585
'0:15.375',-2.445
'0:15.378',-2.300
'0:15.381',-2.165
'0:15.383',-2.020
'0:15.386',-1.865
'0:15.389',-1.720
'0:15.392',-1.585
'0:15.394',-1.505
'0:15.397',-1.465
'0:15.400',-1.425
'0:15.403',-1.385
'0:15.406',-1.350
'0:15.408',-1.290
'0:15.411',-1.245
'0:15.414',-1.185
'0:15.417',-1.165
'0:15.419',-1.150
'0:15.422',-1.145
'0:15.425',-1.105
'0:15.428',-1.060
'0:15.431',-0.995
'0:15.433',-0.935
'0:15.436',-0.870
'0:15.439',-0.790
'0:15.442',-0.720
'0:15.444',-0.660
'0:15.447',-0.605
'0:15.450',-0.550
'0:15.453',-0.475
'0:15.456',-0.390
'0:15.458',-0.295
'0:15.461',-0.215
'0:15.464',-0.150
'0:15.467',-0.095
'0:15.469',-0.030
'0:15.472',0.020
'0:15.475',0.065
'0:15.478',0.110
'0:15.481',0.140
'0:15.483',0.140
'0:15.486',0.155
'0:15.489',0.170
'0:15.492',0.200
'0:15.494',0.245
'0:15.497',0.255
'0:15.500',0.280
'0:15.503',0.300
'0:15.506',0.310
'0:15.508',0.350
'0:15.511',0.370
'0:15.514',0.400
'0:15.517',0.405
'0:15.519',0.425
'0:15.522',0.450
'0:15.525',0.490
'0:15.528',0.515
'0:15.531',0.540
'0:15.533',0.560
'0:15.536',0.565
'0:15.539',0.585
'0:15.542',0.625
'0:15.544',0.665
'0:15.547',0.690
'0:15.550',0.730
'0:15.553',0.750
'0:15.556',0.760
'0:15.558',0.805
'0:15.561',0.845
'0:15.564',0.875
'0:15.567',0.885
'0:15.569',0.915
'0:15.572',0.940
'0:15.575',0.970
'0:15.578',0.995
'0:15.581',1.030
'0:15.583',1.040
'0:15.586',1.060
'0:15.589',1.070
'0:15.592',1.080
'0:15.594',1.110
'0:15.597',1.100
'0:15.600',1.110
'0:15.603',1.095
'0:15.606',1.095
'0:15.608',1.110
'0:15.611',1.115
'0:15.614',1.105
'0:15.617',1.080
'0:15.619',1.070
'0:15.622',1.045
'0:15.625',1.040
'0:15.628',1.025
'0:15.631',1.020
'0:15.633',0.980
'0:15.636',0.940
'0:15.639',0.905
'0:15.642',0.880
'0:15.644',0.865
'0:15.647',0.825
'0:15.650',0.785
'0:15.653',0.745
'0:15.656',0.705
'0:15.658',0.675
'0:15.661',0.635
'0:15.664',0.595
'0:15.667',0.555
'0:15.669',0.495
'0:15.672',0.445
'0:15.675',0.410
'0:15.678',0.375
'0:15.681',0.335
'0:15.683',0.270
'0:15.686',0.235
'0:15.689',0.195
'0:15.692',0.150
'0:15.694',0.110
'0:15.697',0.070
'0:15.700',0.030
'0:15.703',-0.030
'0:15.706',-0.050
'0:15.708',-0.075
'0:15.711',-0.100
'0:15.714',-0.120
'0:15.717',-0.165
'0:15.719',-0.200
'0:15.722',-0.225
'0:15.725',-0.230
'0:15.728',-0.245
'0:15.731',-0.255
'0:15.733',-0.270
'0:15.736',-0.300
'0:15.739',-0.325
'0:15.742',-0.325
'0:15.744',-0.315
'0:15.747',-0.320
'0:15.750',-0.335
'0:15.753',-0.345
'0:15.756',-0.360
'0:15.758',-0.350
'0:15.761',-0.365
'0:15.764',-0.365
'0:15.767',-0.370
'0:15.769',-0.375
'0:15.772',-0.390
'0:15.775',-0.385
'0:15.778',-0.380
'0:15.781',-0.370
'0:15.783',-0.380
'0:15.786',-0.395
'0:15.789',-0.405
'0:15.792',-0.395
'0:15.794',-0.380
'0:15.797',-0.380
'0:15.800',-0.385
'0:15.803',-0.385
'0:15.806',-0.390
'0:15.808',-0.380
'0:15.811',-0.375
'0:15.814',-0.375
'0:15.817',-0.385
'0:15.819',-0.385
'0:15.822',-0.390
'0:15.825',-0.375
'0:15.828',-0.375
'0:15.831',-0.370
'0:15.833',-0.380
'0:15.836',-0.375
'0:15.839',-0.370
'0:15.842',-0.345
'0:15.844',-0.315
'0:15.847',-0.300
'0:15.850',-0.290
'0:15.853',-0.280
'0:15.856',-0.250
'0:15.858',-0.205
'0:15.861',-0.155
'0:15.864',-0.115
'0:15.867',-0.100
'0:15.869',-0.080
'0:15.872',-0.055
'0:15.875',-0.035
'0:15.878',-0.015
'0:15.881',0.005
'0:15.883',0.035
'0:15.886',0.040
'0:15.889',0.035
'0:15.892',0.030
'0:15.894',0.020
'0:15.897',-0.010
'0:15.900',-0.025
'0:15.903',-0.045
'0:15.906',-0.065
'0:15.908',-0.055
'0:15.911',-0.035
'0:15.914',-0.055
'0:15.917',-0.065
'0:15.919',-0.080
'0:15.922',-0.100
'0:15.925',-0.105
'0:15.928',-0.115
'0:15.931',-0.140
'0:15.933',-0.175
'0:15.936',-0.205
'0:15.939',-0.235
'0:15.942',-0.250
'0:15.944',-0.265
'0:15.947',-0.290
'0:15.950',-0.320
'0:15.953',-0.350
'0:15.956',-0.380
'0:15.958',-0.380
'0:15.961',-0.400
'0:15.964',-0.410
'0:15.967',-0.435
'0:15.969',-0.460
'0:15.972',-0.490
'0:15.975',-0.490
'0:15.978',-0.500
'0:15.981',-0.510
'0:15.983',-0.525
'0:15.986',-0.525
'0:15.989',-0.535
'0:15.992',-0.525
'0:15.994',-0.530
'0:15.997',-0.530
'0:16.000',-0.530
'0:16.003',-0.540
'0:16.006',-0.550
'0:16.008',-0.545
'0:16.011',-0.525
'0:16.014',-0.530
'0:16.017',-0.535
'0:16.019',-0.540
'0:16.022',-0.550
'0:16.025',-0.535
'0:16.028',-0.530
'0:16.031',-0.525
'0:16.033',-0.530
'0:16.036',-0.545
'0:16.039',-0.540
'0:16.042',-0.535
'0:16.044',-0.525
'0:16.047',-0.520
'0:16.050',-0.515
'0:16.053',-0.535
'0:16.056',-0.535
'0:16.058',-0.520
'0:16.061',-0.515
'0:16.064',-0.500
'0:16.067',-0.510
'0:16.069',-0.525
'0:16.072',-0.525
'0:16.075',-0.520
'0:16.078',-0.495
'0:16.081',-0.490
'0:16.083',-0.470
'0:16.086',-0.460
'0:16.089',-0.455
'0:16.092',-0.425
'0:16.094',-0.395
'0:16.097',-0.360
'0:16.100',-0.260
'0:16.103',-0.040
'0:16.106',0.430
'0:16.108',1.065
'0:16.111',1.590
'0:16.114',1.695
'0:16.117',1.540
'0:16.119',1.350
'0:16.122',1.245
'0:16.125',1.190
'0:16.128',1.150
'0:16.131',1.065
'0:16.133',0.975
'0:16.136',0.890
'0:16.139',0.825
'0:16.142',0.770
'0:16.144',0.720
'0:16.147',0.665
'0:16.150',0.580
'0:16.153',0.480
'0:16.156',0.395
'0:16.158',0.305
'0:16.161',0.235
'0:16.164',0.135
'0:16.167',0.020
'0:16.169',-0.115
'0:16.172',-0.250
'0:16.175',-0.375
'0:16.178',-0.525
'0:16.181',-0.640
'0:16.183',-0.780
'0:16.186',-0.955
'0:16.189',-1.125
'0:16.192',-1.265
'0:16.194',-1.380
'0:16.197',-1.480
'0:16.200',-1.540
'0:16.203',-1.615
'0:16.206',-1.660
'0:16.208',-1.710
'0:16.211',-1.770
'0:16.214',-1.860
'0:16.217',-1.990
'0:16.219',-2.100
'0:16.222',-2.170
'0:16.225',-2.220
'0:16.228',-2.285
'0:16.231',-2.350
'0:16.233',-2.375
'0:16.236',-2.345
'0:16.239',-2.240
'0:16.242',-2.125
'0:16.244',-2.005
'0:16.247',-1.885
'0:16.250',-1.740
'0:16.253',-1.625
'0:16.256',-1.540
'0:16.258',-1.455
'0:16.261',-1.395
'0:16.264',-1.300
'0:16.267',-1.245
'0:16.269',-1.205
'0:16.272',-1.165
'0:16.275',-1.110
'0:16.278',-1.065
'0:16.281',-1.030
'0:16.283',-1.025
'0:16.286',-1.015
'0:16.289',-0.990
'0:16.292',-0.945
'0:16.294',-0.880
'0:16.297',-0.810
'0:16.300',-0.750
'0:16.303',-0.700
'0:16.306',-0.650
'0:16.308',-0.580
'0:16.311',-0.500
'0:16.314',-0.420
'0:16.317',-0.335
'0:16.319',-0.265
'0:16.322',-0.205
'0:16.325',-0.130
'0:16.328',-0.070
'0:16.331',-0.005
'0:16.333',0.060
'0:16.336',0.095
'0:16.339',0.115
'0:16.342',0.135
'0:16.344',0.155
'0:16.347',0.165
'0:16.350',0.175
'0:16.353',0.195
'0:16.356',0.200
'0:16.358',0.225
'0:16.361',0.260
'0:16.364',0.275
'0:16.367',0.290
'0:16.369',0.300
'0:16.372',0.310
'0:16.375',0.330
'0:16.378',0.365
'0:16.381',0.390
'0:16.383',0.405
'0:16.386',0.420
'0:16.389',0.430
'0:16.392',0.475
'0:16.394',0.490
'0:16.397',0.520
'0:16.400',0.550
'0:16.403',0.560
'0:16.406',0.575
'0:16.408',0.620
'0:16.411',0.640
'0:16.414',0.670
'0:16.417',0.690
'0:16.419',0.715
'0:16.422',0.745
'0:16.425',0.765
'0:16.428',0.800
'0:16.431',0.820
'0:16.433',0.835
'0:16.436',0.855
'0:16.439',0.885
'0:16.442',0.920
'0:16.444',0.920
'0:16.447',0.945
'0:16.450',0.945
'0:16.453',0.960
'0:16.456',0.955
'0:16.458',0.975
'0:16.461',0.985
'0:16.464',0.985
'0:16.467',0.980
'0:16.469',0.970
'0:16.472',0.950
'0:16.475',0.955
'0:16.478',0.955
'0:16.481',0.950
'0:16.483',0.945
'0:16.486',0.920
'0:16.489',0.900
'0:16.492',0.885
'0:16.494',0.855
'0:16.497',0.840
'0:16.500',0.800
'0:16.503',0.765
'0:16.506',0.735
'0:16.508',0.700
'0:16.511',0.685
'0:16.514',0.650
'0:16.517',0.605
'0:16.519',0.570
'0:16.522',0.530
'0:16.525',0.505
'0:16.528',0.475
'0:16.531',0.445
'0:16.533',0.365
'0:16.536',0.315
'0:16.539',0.275
'0:16.542',0.250
'0:16.544',0.220
'0:16.547',0.175
'0:16.550',0.125
'0:16.553',0.085
'0:16.556',0.040
'0:16.558',0.005
'0:16.561',-0.015
'0:16.564',-0.040
'0:16.567',-0.060
'0:16.569',-0.100
'0:16.572',-0.115
'0:16.575',-0.115
'0:16.578',-0.125
'0:16.581',-0.110
'0:16.583',-0.100
'0:16.586',-0.085
'0:16.589',-0.055
'0:16.592',0.005
'0:16.594',0.050
'0:16.597',0.070
'0:16.600',0.070
'0:16.603',0.060
'0:16.606',0.065
'0:16.608',0.070
'0:16.611',0.085
'0:16.614',0.095
'0:16.617',0.070
'0:16.619',0.050
'0:16.622',0.010
'0:16.625',-0.030
'0:16.628',-0.050
'0:16.631',-0.055
'0:16.633',-0.075
'0:16.636',-0.095
'0:16.639',-0.100
'0:16.642',-0.090
'0:16.644',-0.100
'0:16.647',-0.110
'0:16.650',-0.150
'0:16.653',-0.170
'0:16.656',-0.195
'0:16.658',-0.205
'0:16.661',-0.210
'0:16.664',-0.235
'0:16.667',-0.260
'0:16.669',-0.285
'0:16.672',-0.330
'0:16.675',-0.350
'0:16.678',-0.370
'0:16.681',-0.400
'0:16.683',-0.420
'0:16.686',-0.470
'0:16.689',-0.470
'0:16.692',-0.465
'0:16.694',-0.450
'0:16.697',-0.465
'0:16.700',-0.475
'0:16.703',-0.505
'0:16.706',-0.545
'0:16.708',-0.540
'0:16.711',-0.535
'0:16.714',-0.530
'0:16.717',-0.545
'0:16.719',-0.555
'0:16.722',-0.555
'0:16.725',-0.550
'0:16.728',-0.545
'0:16.731',-0.550
'0:16.733',-0.550
'0:16.736',-0.570
'0:16.739',-0.585
'0:16.742',-0.570
'0:16.744',-0.570
'0:16.747',-0.560
'0:16.750',-0.580
'0:16.753',-0.590
'0:16.756',-0.585
'0:16.758',-0.580
'0:16.761',-0.585
'0:16.764',-0.600
'0:16.767',-0.590
'0:16.769',-0.570
'0:16.772',-0.565
'0:16.775',-0.585
'0:16.778',-0.585
'0:16.781',-0.590
'0:16.783',-0.585
'0:16.786',-0.565
'0:16.789',-0.560
'0:16.792',-0.560
'0:16.794',-0.560
'0:16.797',-0.565
'0:16.800',-0.585
'0:16.803',-0.595
'0:16.806',-0.585
'0:16.808',-0.585
'0:16.811',-0.575
'0:16.814',-0.580
'0:16.817',-0.590
'0:16.819',-0.610
'0:16.822',-0.605
'0:16.825',-0.580
'0:16.828',-0.570
'0:16.831',-0.565
'0:16.833',-0.595
'0:16.836',-0.590
'0:16.839',-0.590
'0:16.842',-0.585
'0:16.844',-0.580
'0:16.847',-0.570
'0:16.850',-0.570
'0:16.853',-0.580
'0:16.856',-0.590
'0:16.858',-0.570
'0:16.861',-0.565
'0:16.864',-0.565
'0:16.867',-0.560
'0:16.869',-0.560
'0:16.872',-0.575
'0:16.875',-0.545
'0:16.878',-0.540
'0:16.881',-0.540
'0:16.883',-0.545
'0:16.886',-0.545
'0:16.889',-0.530
'0:16.892',-0.525
'0:16.894',-0.510
'0:16.897',-0.505
'0:16.900',-0.505
'0:16.903',-0.500
'0:16.906',-0.500
'0:16.908',-0.490
'0:16.911',-0.480
'0:16.914',-0.475
'0:16.917',-0.470
'0:16.919',-0.470
'0:16.922',-0.465
'0:16.925',-0.460
'0:16.928',-0.450
'0:16.931',-0.435
'0:16.933',-0.420
'0:16.936',-0.430
'0:16.939',-0.405
'0:16.942',-0.370
'0:16.944',-0.310
'0:16.947',-0.210
'0:16.950',0.035
'0:16.953',0.485
'0:16.956',1.115
'0:16.958',1.590
'0:16.961',1.720
'0:16.964',1.565
'0:16.967',1.385
'0:16.969',1.275
'0:16.972',1.210
'0:16.975',1.140
'0:16.978',1.060
'0:16.981',0.965
'0:16.983',0.875
'0:16.986',0.775
'0:16.989',0.675
'0:16.992',0.595
'0:16.994',0.490
'0:16.997',0.360
'0:17.000',0.220
'0:17.003',0.070
'0:17.006',-0.090
'0:17.008',-0.230
'0:17.011',-0.385
'0:17.014',-0.565
'0:17.017',-0.745
'0:17.019',-0.930
'0:17.022',-1.110
'0:17.025',-1.285
'0:17.028',-1.445
'0:17.031',-1.615
'0:17.033',-1.785
'0:17.036',-1.930
'0:17.039',-2.060
'0:17.042',-2.115
'0:17.044',-2.145
'0:17.047',-2.185
'0:17.050',-2.250
'0:17.053',-2.335
'0:17.056',-2.420
'0:17.058',-2.470
'0:17.061',-2.520
'0:17.064',-2.580
'0:17.067',-2.640
'0:17.069',-2.685
'0:17.072',-2.670
'0:17.075',-2.575
'0:17.078',-2.425
'0:17.081',-2.255
'0:17.083',-2.085
'0:17.086',-1.890
'0:17.089',-1.715
'0:17.092',-1.565
'0:17.094',-1.460
'0:17.097',-1.385
'0:17.100',-1.315
'0:17.103',-1.240
'0:17.106',-1.180
'0:17.108',-1.110
'0:17.111',-1.065
'0:17.114',-1.035
'0:17.117',-1.025
'0:17.119',-1.020
'0:17.122',-1.005
'0:17.125',-0.945
'0:17.128',-0.875
'0:17.131',-0.805
'0:17.133',-0.755
'0:17.136',-0.695
'0:17.139',-0.650
'0:17.142',-0.580
'0:17.144',-0.515
'0:17.147',-0.445
'0:17.150',-0.355
'0:17.153',-0.290
'0:17.156',-0.215
'0:17.158',-0.135
'0:17.161',-0.060
'0:17.164',-0.005
'0:17.167',0.050
'0:17.169',0.105
'0:17.172',0.120
'0:17.175',0.145
'0:17.178',0.175
'0:17.181',0.185
'0:17.183',0.215
'0:17.186',0.235
'0:17.189',0.245
'0:17.192',0.260
'0:17.194',0.265
'0:17.197',0.280
'0:17.200',0.300
'0:17.203',0.325
'0:17.206',0.355
'0:17.208',0.365
'0:17.211',0.405
'0:17.214',0.440
'0:17.217',0.460
'0:17.219',0.465
'0:17.222',0.475
'0:17.225',0.520
'0:17.228',0.555
'0:17.231',0.580
'0:17.233',0.610
'0:17.236',0.625
'0:17.239',0.665
'0:17.242',0.695
'0:17.244',0.720
'0:17.247',0.730
'0:17.250',0.775
'0:17.253',0.795
'0:17.256',0.815
'0:17.258',0.840
'0:17.261',0.865
'0:17.264',0.905
'0:17.267',0.935
'0:17.269',0.960
'0:17.272',0.970
'0:17.275',1.015
'0:17.278',1.050
'0:17.281',1.090
'0:17.283',1.110
'0:17.286',1.125
'0:17.289',1.155
'0:17.292',1.195
'0:17.294',1.220
'0:17.297',1.215
'0:17.300',1.215
'0:17.303',1.215
'0:17.306',1.215
'0:17.308',1.225
'0:17.311',1.220
'0:17.314',1.200
'0:17.317',1.155
'0:17.319',1.090
'0:17.322',1.045
'0:17.325',1.025
'0:17.328',0.995
'0:17.331',0.960
'0:17.333',0.925
'0:17.336',0.880
'0:17.339',0.860
'0:17.342',0.810
'0:17.344',0.775
'0:17.347',0.730
'0:17.350',0.670
'0:17.353',0.595
'0:17.356',0.525
'0:17.358',0.475
'0:17.361',0.425
'0:17.364',0.355
'0:17.367',0.280
'0:17.369',0.190
'0:17.372',0.115
'0:17.375',0.055
'0:17.378',0.010
'0:17.381',-0.045
'0:17.383',-0.100
'0:17.386',-0.170
'0:17.389',-0.210
'0:17.392',-0.230
'0:17.394',-0.270
'0:17.397',-0.320
'0:17.400',-0.365
'0:17.403',-0.415
'0:17.406',-0.435
'0:17.408',-0.450
'0:17.411',-0.460
'0:17.414',-0.470
'0:17.417',-0.490
'0:17.419',-0.515
'0:17.422',-0.535
'0:17.425',-0.545
'0:17.428',-0.535
'0:17.431',-0.535
'0:17.433',-0.545
'0:17.436',-0.555
'0:17.439',-0.580
'0:17.442',-0.570
'0:17.444',-0.580
'0:17.447',-0.575
'0:17.450',-0.590
'0:17.453',-0.605
'0:17.456',-0.615
'0:17.458',-0.600
'0:17.461',-0.595
'0:17.464',-0.600
'0:17.467',-0.605
'0:17.469',-0.620
'0:17.472',-0.625
'0:17.475',-0.615
'0:17.478',-0.605
'0:17.481',-0.610
'0:17.483',-0.625
'0:17.486',-0.625
'0:17.489',-0.620
'0:17.492',-0.625
'0:17.494',-0.630
'0:17.497',-0.625
'0:17.500',-0.625
'0:17.503',-0.620
'0:17.506',-0.615
'0:17.508',-0.610
'0:17.511',-0.600
'0:17.514',-0.600
'0:17.517',-0.605
'0:17.519',-0.615
'0:17.522',-0.610
'0:17.525',-0.600
'0:17.528',-0.605
'0:17.531',-0.600
'0:17.533',-0.605
'0:17.536',-0.595
'0:17.539',-0.610
'0:17.542',-0.605
'0:17.544',-0.590
'0:17.547',-0.585
'0:17.550',-0.590
'0:17.553',-0.590
'0:17.556',-0.600
'0:17.558',-0.580
'0:17.561',-0.570
'0:17.564',-0.580
'0:17.567',-0.605
'0:17.569',-0.610
'0:17.572',-0.605
'0:17.575',-0.590
'0:17.578',-0.585
'0:17.581',-0.580
'0:17.583',-0.580
'0:17.586',-0.585
'0:17.589',-0.585
'0:17.592',-0.575
'0:17.594',-0.575
'0:17.597',-0.575
'0:17.600',-0.570
'0:17.603',-0.585
'0:17.606',-0.585
'0:17.608',-0.580
'0:17.611',-0.565
'0:17.614',-0.565
'0:17.617',-0.560
'0:17.619',-0.560
'0:17.622',-0.570
'0:17.625',-0.550
'0:17.628',-0.555
'0:17.631',-0.545
'0:17.633',-0.550
'0:17.636',-0.555
'0:17.639',-0.555
'0:17.642',-0.555
'0:17.644',-0.540
'0:17.647',-0.535
'0:17.650',-0.535
'0:17.653',-0.545
'0:17.656',-0.540
'0:17.658',-0.535
'0:17.661',-0.530
'0:17.664',-0.515
'0:17.667',-0.525
'0:17.669',-0.525
'0:17.672',-0.525
'0:17.675',-0.515
'0:17.678',-0.490
'0:17.681',-0.495
'0:17.683',-0.490
'0:17.686',-0.505
'0:17.689',-0.515
'0:17.692',-0.485
'0:17.694',-0.480
'0:17.697',-0.480
'0:17.700',-0.485
'0:17.703',-0.505
'0:17.706',-0.505
'0:17.708',-0.475
'0:17.711',-0.465
'0:17.714',-0.465
'0:17.717',-0.460
'0:17.719',-0.460
'0:17.722',-0.460
'0:17.725',-0.440
'0:17.728',-0.430
'0:17.731',-0.425
'0:17.733',-0.435
'0:17.736',-0.430
'0:17.739',-0.435
'0:17.742',-0.440
'0:17.744',-0.425
'0:17.747',-0.415
'0:17.750',-0.415
'0:17.753',-0.410
'0:17.756',-0.415
'0:17.758',-0.400
'0:17.761',-0.370
'0:17.764',-0.355
'0:17.767',-0.345
'0:17.769',-0.325
'0:17.772',-0.295
'0:17.775',-0.205
'0:17.778',-0.025
'0:17.781',0.355
'0:17.783',0.920
'0:17.786',1.460
'0:17.789',1.715
'0:17.792',1.655
'0:17.794',1.480
'0:17.797',1.370
'0:17.800',1.295
'0:17.803',1.225
'0:17.806',1.140
'0:17.808',1.050
'0:17.811',0.970
'0:17.814',0.870
'0:17.817',0.785
'0:17.819',0.710
'0:17.822',0.615
'0:17.825',0.520
'0:17.828',0.430
'0:17.831',0.310
'0:17.833',0.180
'0:17.836',0.040
'0:17.839',-0.100
'0:17.842',-0.245
'0:17.844',-0.405
'0:17.847',-0.605
'0:17.850',-0.835
'0:17.853',-1.075
'0:17.856',-1.285
'0:17.858',-1.475
'0:17.861',-1.620
'0:17.864',-1.745
'0:17.867',-1.845
'0:17.869',-1.950
'0:17.872',-2.010
'0:17.875',-2.060
'0:17.878',-2.090
'0:17.881',-2.135
'0:17.883',-2.225
'0:17.886',-2.310
'0:17.889',-2.365
'0:17.892',-2.410
'0:17.894',-2.465
'0:17.897',-2.525
'0:17.900',-2.570
'0:17.903',-2.565
'0:17.906',-2.480
'0:17.908',-2.295
'0:17.911',-2.095
'0:17.914',-1.895
'0:17.917',-1.730
'0:17.919',-1.595
'0:17.922',-1.460
'0:17.925',-1.340
'0:17.928',-1.255
'0:17.931',-1.170
'0:17.933',-1.130
'0:17.936',-1.085
'0:17.939',-1.050
'0:17.942',-1.000
'0:17.944',-0.965
'0:17.947',-0.950
'0:17.950',-0.955
'0:17.953',-0.945
'0:17.956',-0.915
'0:17.958',-0.850
'0:17.961',-0.790
'0:17.964',-0.720
'0:17.967',-0.670
'0:17.969',-0.630
'0:17.972',-0.570
'0:17.975',-0.495
'0:17.978',-0.415
'0:17.981',-0.320
'0:17.983',-0.210
'0:17.986',-0.105
'0:17.989',-0.010
'0:17.992',0.080
'0:17.994',0.165
'0:17.997',0.265
'0:18.000',0.345
'0:18.003',0.425
'0:18.006',0.470
'0:18.008',0.510
'0:18.011',0.555
'0:18.014',0.575
'0:18.017',0.610
'0:18.019',0.640
'0:18.022',0.685
'0:18.025',0.720
'0:18.028',0.725
'0:18.031',0.720
'0:18.033',0.695
'0:18.036',0.695
'0:18.039',0.705
'0:18.042',0.740
'0:18.044',0.775
'0:18.047',0.810
'0:18.050',0.825
'0:18.053',0.840
'0:18.056',0.835
'0:18.058',0.860
'0:18.061',0.890
'0:18.064',0.910
'0:18.067',0.910
'0:18.069',0.910
'0:18.072',0.905
'0:18.075',0.935
'0:18.078',0.955
'0:18.081',0.975
'0:18.083',0.965
'0:18.086',0.975
'0:18.089',0.980
'0:18.092',0.995
'0:18.094',1.025
'0:18.097',1.025
'0:18.100',1.035
'0:18.103',1.040
'0:18.106',1.050
'0:18.108',1.060
'0:18.111',1.095
'0:18.114',1.085
'0:18.117',1.085
'0:18.119',1.085
'0:18.122',1.080
'0:18.125',1.075
'0:18.128',1.090
'0:18.131',1.080
'0:18.133',1.070
'0:18.136',1.035
'0:18.139',1.025
'0:18.142',1.030
'0:18.144',1.015
'0:18.147',0.985
'0:18.150',0.950
'0:18.153',0.920
'0:18.156',0.880
'0:18.158',0.860
'0:18.161',0.850
'0:18.164',0.810
'0:18.167',0.770
'0:18.169',0.715
'0:18.172',0.675
'0:18.175',0.655
'0:18.178',0.610
'0:18.181',0.565
'0:18.183',0.525
'0:18.186',0.460
'0:18.189',0.410
'0:18.192',0.380
'0:18.194',0.335
'0:18.197',0.285
'0:18.200',0.230
'0:18.203',0.175
'0:18.206',0.130
'0:18.208',0.105
'0:18.211',0.065
'0:18.214',0.025
'0:18.217',-0.030
'0:18.219',-0.085
'0:18.222',-0.125
'0:18.225',-0.165
'0:18.228',-0.185
'0:18.231',-0.215
'0:18.233',-0.245
'0:18.236',-0.275
'0:18.239',-0.300
'0:18.242',-0.320
'0:18.244',-0.340
'0:18.247',-0.365
'0:18.250',-0.390
'0:18.253',-0.415
'0:18.256',-0.425
'0:18.258',-0.425
'0:18.261',-0.430
'0:18.264',-0.430
'0:18.267',-0.440
'0:18.269',-0.455
'0:18.272',-0.465
'0:18.275',-0.460
'0:18.278',-0.460
'0:18.281',-0.465
'0:18.283',-0.485
'0:18.286',-0.485
'0:18.289',-0.490
'0:18.292',-0.495
'0:18.294',-0.475
'0:18.297',-0.480
'0:18.300',-0.490
'0:18.303',-0.495
'0:18.306',-0.500
'0:18.308',-0.495
'0:18.311',-0.500
'0:18.314',-0.495
'0:18.317',-0.485
'0:18.319',-0.490
'0:18.322',-0.500
'0:18.325',-0.490
'0:18.328',-0.485
'0:18.331',-0.495
'0:18.333',-0.490
'0:18.336',-0.490
'0:18.339',-0.490
'0:18.342',-0.480
'0:18.344',-0.460
'0:18.347',-0.455
'0:18.350',-0.455
'0:18.353',-0.475
'0:18.356',-0.470
'0:18.358',-0.450
'0:18.361',-0.440
'0:18.364',-0.435
'0:18.367',-0.445
'0:18.369',-0.455
'0:18.372',-0.450
'0:18.375',-0.440
'0:18.378',-0.430
'0:18.381',-0.430
'0:18.383',-0.430
'0:18.386',-0.425
'0:18.389',-0.435
'0:18.392',-0.425
'0:18.394',-0.415
'0:18.397',-0.420
'0:18.400',-0.415
'0:18.403',-0.420
'0:18.406',-0.425
'0:18.408',-0.405
'0:18.411',-0.400
'0:18.414',-0.390
'0:18.417',-0.400
'0:18.419',-0.410
'0:18.422',-0.410
'0:18.425',-0.410
'0:18.428',-0.410
'0:18.431',-0.405
'0:18.433',-0.400
'0:18.436',-0.405
'0:18.439',-0.405
'0:18.442',-0.405
'0:18.444',-0.395
'0:18.447',-0.400
'0:18.450',-0.410
'0:18.453',-0.430
'0:18.456',-0.425
'0:18.458',-0.420
'0:18.461',-0.410
'0:18.464',-0.400
'0:18.467',-0.400
'0:18.469',-0.415
'0:18.472',-0.420
'0:18.475',-0.420
'0:18.478',-0.400
'0:18.481',-0.395
'0:18.483',-0.395
'0:18.486',-0.395
'0:18.489',-0.395
'0:18.492',-0.395
'0:18.494',-0.380
'0:18.497',-0.385
'0:18.500',-0.400
'0:18.503',-0.410
'0:18.506',-0.410
'0:18.508',-0.385
'0:18.511',-0.370
'0:18.514',-0.365
'0:18.517',-0.375
'0:18.519',-0.380
'0:18.522',-0.375
'0:18.525',-0.370
'0:18.528',-0.365
'0:18.531',-0.370
'0:18.533',-0.360
'0:18.536',-0.380
'0:18.539',-0.380
'0:18.542',-0.380
'0:18.544',-0.370
'0:18.547',-0.360
'0:18.550',-0.370
'0:18.553',-0.375
'0:18.556',-0.375
'0:18.558',-0.360
'0:18.561',-0.350
'0:18.564',-0.360
'0:18.567',-0.375
'0:18.569',-0.375
'0:18.572',-0.375
'0:18.575',-0.370
'0:18.578',-0.360
'0:18.581',-0.350
'0:18.583',-0.345
'0:18.586',-0.345
'0:18.589',-0.360
'0:18.592',-0.345
'0:18.594',-0.335
'0:18.597',-0.330
'0:18.600',-0.325
'0:18.603',-0.325
'0:18.606',-0.315
'0:18.608',-0.305
'0:18.611',-0.295
'0:18.614',-0.255
'0:18.617',-0.220
'0:18.619',-0.135
'0:18.622',0.080
'0:18.625',0.530
'0:18.628',1.145
'0:18.631',1.655
'0:18.633',1.785
'0:18.636',1.630
'0:18.639',1.435
'0:18.642',1.340
'0:18.644',1.305
'0:18.647',1.245
'0:18.650',1.140
'0:18.653',1.030
'0:18.656',0.920
'0:18.658',0.830
'0:18.661',0.740
'0:18.664',0.660
'0:18.667',0.535
'0:18.669',0.405
'0:18.672',0.265
'0:18.675',0.105
'0:18.678',-0.040
'0:18.681',-0.195
'0:18.683',-0.365
'0:18.686',-0.540
'0:18.689',-0.745
'0:18.692',-0.955
'0:18.694',-1.165
'0:18.697',-1.360
'0:18.700',-1.535
'0:18.703',-1.690
'0:18.706',-1.810
'0:18.708',-1.870
'0:18.711',-1.920
'0:18.714',-1.925
'0:18.717',-1.935
'0:18.719',-1.965
'0:18.722',-2.025
'0:18.725',-2.105
'0:18.728',-2.175
'0:18.731',-2.220
'0:18.733',-2.270
'0:18.736',-2.345
'0:18.739',-2.385
'0:18.742',-2.370
'0:18.744',-2.280
'0:18.747',-2.090
'0:18.750',-1.880
'0:18.753',-1.650
'0:18.756',-1.465
'0:18.758',-1.305
'0:18.761',-1.165
'0:18.764',-1.060
'0:18.767',-0.985
'0:18.769',-0.910
'0:18.772',-0.865
'0:18.775',-0.820
'0:18.778',-0.765
'0:18.781',-0.740
'0:18.783',-0.730
'0:18.786',-0.750
'0:18.789',-0.780
'0:18.792',-0.785
'0:18.794',-0.775
'0:18.797',-0.760
'0:18.800',-0.715
'0:18.803',-0.675
'0:18.806',-0.635
'0:18.808',-0.585
'0:18.811',-0.540
'0:18.814',-0.480
'0:18.817',-0.440
'0:18.819',-0.390
'0:18.822',-0.315
'0:18.825',-0.240
'0:18.828',-0.155
'0:18.831',-0.105
'0:18.833',-0.055
'0:18.836',-0.005
'0:18.839',0.040
'0:18.842',0.085
'0:18.844',0.120
'0:18.847',0.130
'0:18.850',0.145
'0:18.853',0.150
'0:18.856',0.180
'0:18.858',0.210
'0:18.861',0.245
'0:18.864',0.255
'0:18.867',0.275
'0:18.869',0.280
'0:18.872',0.290
'0:18.875',0.330
'0:18.878',0.365
'0:18.881',0.385
'0:18.883',0.405
'0:18.886',0.415
'0:18.889',0.430
'0:18.892',0.450
'0:18.894',0.480
'0:18.897',0.510
'0:18.900',0.545
'0:18.903',0.565
'0:18.906',0.590
'0:18.908',0.620
'0:18.911',0.665
'0:18.914',0.695
'0:18.917',0.735
'0:18.919',0.750
'0:18.922',0.775
'0:18.925',0.810
'0:18.928',0.830
'0:18.931',0.845
'0:18.933',0.855
'0:18.936',0.865
'0:18.939',0.880
'0:18.942',0.915
'0:18.944',0.950
'0:18.947',0.960
'0:18.950',0.975
'0:18.953',0.970
'0:18.956',0.970
'0:18.958',0.985
'0:18.961',0.995
'0:18.964',0.990
'0:18.967',0.985
'0:18.969',0.975
'0:18.972',0.970
'0:18.975',0.950
'0:18.978',0.960
'0:18.981',0.940
'0:18.983',0.930
'0:18.986',0.890
'0:18.989',0.860
'0:18.992',0.845
'0:18.994',0.835
'0:18.997',0.785
'0:19.000',0.760
'0:19.003',0.720
'0:19.006',0.685
'0:19.008',0.635
'0:19.011',0.590
'0:19.014',0.550
'0:19.017',0.495
'0:19.019',0.470
'0:19.022',0.430
'0:19.025',0.390
'0:19.028',0.340
'0:19.031',0.305
'0:19.033',0.245
'0:19.036',0.205
'0:19.039',0.145
'0:19.042',0.115
'0:19.044',0.085
'0:19.047',0.050
'0:19.050',0.005
'0:19.053',-0.050
'0:19.056',-0.085
'0:19.058',-0.105
'0:19.061',-0.125
'0:19.064',-0.160
'0:19.067',-0.195
'0:19.069',-0.240
'0:19.072',-0.260
'0:19.075',-0.280
'0:19.078',-0.275
'0:19.081',-0.295
'0:19.083',-0.325
'0:19.086',-0.355
'0:19.089',-0.370
'0:19.092',-0.360
'0:19.094',-0.380
'0:19.097',-0.380
'0:19.100',-0.395
'0:19.103',-0.410
'0:19.106',-0.420
'0:19.108',-0.415
'0:19.111',-0.405
'0:19.114',-0.420
'0:19.117',-0.430
'0:19.119',-0.430
'0:19.122',-0.440
'0:19.125',-0.425
'0:19.128',-0.430
'0:19.131',-0.430
'0:19.133',-0.445
'0:19.136',-0.435
'0:19.139',-0.445
'0:19.142',-0.440
'0:19.144',-0.435
'0:19.147',-0.430
'0:19.150',-0.425
'0:19.153',-0.445
'0:19.156',-0.450
'0:19.158',-0.440
'0:19.161',-0.425
'0:19.164',-0.430
'0:19.167',-0.430
'0:19.169',-0.430
'0:19.172',-0.445
'0:19.175',-0.435
'0:19.178',-0.425
'0:19.181',-0.420
'0:19.183',-0.425
'0:19.186',-0.420
'0:19.189',-0.415
'0:19.192',-0.400
'0:19.194',-0.405
'0:19.197',-0.410
'0:19.200',-0.410
'0:19.203',-0.420
'0:19.206',-0.410
'0:19.208',-0.395
'0:19.211',-0.370
'0:19.214',-0.375
'0:19.217',-0.375
'0:19.219',-0.380
'0:19.222',-0.385
'0:19.225',-0.385
'0:19.228',-0.365
'0:19.231',-0.360
'0:19.233',-0.385
'0:19.236',-0.380
'0:19.239',-0.385
'0:19.242',-0.380
'0:19.244',-0.390
'0:19.247',-0.370
'0:19.250',-0.380
'0:19.253',-0.380
'0:19.256',-0.385
'0:19.258',-0.370
'0:19.261',-0.365
'0:19.264',-0.375
'0:19.267',-0.385
'0:19.269',-0.390
'0:19.272',-0.400
'0:19.275',-0.400
'0:19.278',-0.385
'0:19.281',-0.375
'0:19.283',-0.385
'0:19.286',-0.385
'0:19.289',-0.395
'0:19.292',-0.375
'0:19.294',-0.370
'0:19.297',-0.375
'0:19.300',-0.385
'0:19.303',-0.390
'0:19.306',-0.395
'0:19.308',-0.390
'0:19.311',-0.375
'0:19.314',-0.385
'0:19.317',-0.400
'0:19.319',-0.420
'0:19.322',-0.420
'0:19.325',-0.390
'0:19.328',-0.385
'0:19.331',-0.400
'0:19.333',-0.405
'0:19.336',-0.410
'0:19.339',-0.410
'0:19.342',-0.405
'0:19.344',-0.390
'0:19.347',-0.375
'0:19.350',-0.385
'0:19.353',-0.400
'0:19.356',-0.405
'0:19.358',-0.405
'0:19.361',-0.385
'0:19.364',-0.385
'0:19.367',-0.390
'0:19.369',-0.385
'0:19.372',-0.395
'0:19.375',-0.380
'0:19.378',-0.375
'0:19.381',-0.365
'0:19.383',-0.375
'0:19.386',-0.380
'0:19.389',-0.375
'0:19.392',-0.365
'0:19.394',-0.360
'0:19.397',-0.365
'0:19.400',-0.370
'0:19.403',-0.370
'0:19.406',-0.370
'0:19.408',-0.345
'0:19.411',-0.330
'0:19.414',-0.325
'0:19.417',-0.315
'0:19.419',-0.310
'0:19.422',-0.300
'0:19.425',-0.275
'0:19.428',-0.235
'0:19.431',-0.210
'0:19.433',-0.185
'0:19.436',-0.160
'0:19.439',-0.140
'0:19.442',-0.095
'0:19.444',-0.065
'0:19.447',-0.035
'0:19.450',-0.010
'0:19.453',0.040
'0:19.456',0.115
'0:19.458',0.255
'0:19.461',0.510
'0:19.464',0.935
'0:19.467',1.430
'0:19.469',1.785
'0:19.472',1.835
'0:19.475',1.710
'0:19.478',1.610
'0:19.481',1.535
'0:19.483',1.490
'0:19.486',1.405
'0:19.489',1.325
'0:19.492',1.245
'0:19.494',1.170
'0:19.497',1.090
'0:19.500',1.005
'0:19.503',0.915
'0:19.506',0.805
'0:19.508',0.710
'0:19.511',0.610
'0:19.514',0.485
'0:19.517',0.345
'0:19.519',0.205
'0:19.522',0.045
'0:19.525',-0.130
'0:19.528',-0.300
'0:19.531',-0.505
'0:19.533',-0.725
'0:19.536',-0.935
'0:19.539',-1.135
'0:19.542',-1.300
'0:19.544',-1.460
'0:19.547',-1.590
'0:19.550',-1.705
'0:19.553',-1.800
'0:19.556',-1.865
'0:19.558',-1.900
'0:19.561',-1.920
'0:19.564',-1.970
'0:19.567',-2.065
'0:19.569',-2.155
'0:19.572',-2.205
'0:19.575',-2.245
'0:19.578',-2.295
'0:19.581',-2.380
'0:19.583',-2.450
'0:19.586',-2.470
'0:19.589',-2.425
'0:19.592',-2.285
'0:19.594',-2.095
'0:19.597',-1.925
'0:19.600',-1.755
'0:19.603',-1.640
'0:19.606',-1.500
'0:19.608',-1.385
'0:19.611',-1.300
'0:19.614',-1.245
'0:19.617',-1.205
'0:19.619',-1.180
'0:19.622',-1.150
'0:19.625',-1.105
'0:19.628',-1.060
'0:19.631',-1.055
'0:19.633',-1.070
'0:19.636',-1.080
'0:19.639',-1.070
'0:19.642',-1.020
'0:19.644',-0.960
'0:19.647',-0.895
'0:19.650',-0.855
'0:19.653',-0.800
'0:19.656',-0.750
'0:19.658',-0.695
'0:19.661',-0.630
'0:19.664',-0.565
'0:19.667',-0.480
'0:19.669',-0.420
'0:19.672',-0.365
'0:19.675',-0.280
'0:19.678',-0.240
'0:19.681',-0.170
'0:19.683',-0.105
'0:19.686',-0.070
'0:19.689',-0.050
'0:19.692',-0.040
'0:19.694',-0.020
'0:19.697',-0.005
'0:19.700',0.020
'0:19.703',0.045
'0:19.706',0.060
'0:19.708',0.085
'0:19.711',0.110
'0:19.714',0.130
'0:19.717',0.135
'0:19.719',0.160
'0:19.722',0.190
'0:19.725',0.225
'0:19.728',0.255
'0:19.731',0.260
'0:19.733',0.295
'0:19.736',0.310
'0:19.739',0.345
'0:19.742',0.380
'0:19.744',0.415
'0:19.747',0.450
'0:19.750',0.480
'0:19.753',0.495
'0:19.756',0.535
'0:19.758',0.575
'0:19.761',0.625
'0:19.764',0.660
'0:19.767',0.690
'0:19.769',0.700
'0:19.772',0.740
'0:19.775',0.775
'0:19.778',0.810
'0:19.781',0.835
'0:19.783',0.855
'0:19.786',0.865
'0:19.789',0.900
'0:19.792',0.930
'0:19.794',0.940
'0:19.797',0.965
'0:19.800',0.970
'0:19.803',0.975
'0:19.806',0.965
'0:19.808',0.990
'0:19.811',1.005
'0:19.814',1.015
'0:19.817',1.000
'0:19.819',0.985
'0:19.822',0.955
'0:19.825',0.960
'0:19.828',0.960
'0:19.831',0.940
'0:19.833',0.925
'0:19.836',0.905
'0:19.839',0.855
'0:19.842',0.850
'0:19.844',0.830
'0:19.847',0.790
'0:19.850',0.750
'0:19.853',0.700
'0:19.856',0.665
'0:19.858',0.615
'0:19.861',0.595
'0:19.864',0.545
'0:19.867',0.495
'0:19.869',0.445
'0:19.872',0.405
'0:19.875',0.350
'0:19.878',0.335
'0:19.881',0.290
'0:19.883',0.250
'0:19.886',0.195
'0:19.889',0.130
'0:19.892',0.095
'0:19.894',0.060
'0:19.897',0.040
'0:19.900',-0.010
'0:19.903',-0.060
'0:19.906',-0.100
'0:19.908',-0.130
'0:19.911',-0.150
'0:19.914',-0.165
'0:19.917',-0.185
'0:19.919',-0.215
'0:19.922',-0.235
'0:19.925',-0.250
'0:19.928',-0.250
'0:19.931',-0.280
'0:19.933',-0.295
'0:19.936',-0.305
'0:19.939',-0.320
'0:19.942',-0.330
'0:19.944',-0.325
'0:19.947',-0.330
'0:19.950',-0.345
'0:19.953',-0.335
'0:19.956',-0.335
'0:19.958',-0.340
'0:19.961',-0.350
'0:19.964',-0.350
'0:19.967',-0.355
'0:19.969',-0.360
'0:19.972',-0.365
'0:19.975',-0.350
'0:19.978',-0.335
'0:19.981',-0.340
'0:19.983',-0.360
'0:19.986',-0.365
'0:19.989',-0.370
'0:19.992',-0.360
'0:19.994',-0.360
'0:19.997',-0.365
'0:20.000',-0.375
'0:20.003',-0.365
'0:20.006',-0.380
'0:20.008',-0.375
'0:20.011',-0.360
'0:20.014',-0.350
'0:20.017',-0.375
'0:20.019',-0.370
'0:20.022',-0.380
'0:20.025',-0.375
'0:20.028',-0.345
'0:20.031',-0.355
'0:20.033',-0.360
'0:20.036',-0.370
'0:20.039',-0.350
'0:20.042',-0.330
'0:20.044',-0.320
'0:20.047',-0.320
'0:20.050',-0.325
'0:20.053',-0.330
'0:20.056',-0.345
'0:20.058',-0.345
'0:20.061',-0.325
'0:20.064',-0.330
'0:20.067',-0.320
'0:20.069',-0.315
'0:20.072',-0.315
'0:20.075',-0.310
'0:20.078',-0.315
'0:20.081',-0.315
'0:20.083',-0.315
'0:20.086',-0.315
'0:20.089',-0.320
'0:20.092',-0.320
'0:20.094',-0.315
'0:20.097',-0.320
'0:20.100',-0.330
'0:20.103',-0.345
'0:20.106',-0.340
'0:20.108',-0.330
'0:20.111',-0.320
'0:20.114',-0.310
'0:20.117',-0.315
'0:20.119',-0.310
'0:20.122',-0.305
'0:20.125',-0.280
'0:20.128',-0.255
'0:20.131',-0.245
'0:20.133',-0.240
'0:20.136',-0.230
'0:20.139',-0.205
'0:20.142',-0.160
'0:20.144',-0.120
'0:20.147',-0.100
'0:20.150',-0.080
'0:20.153',-0.065
'0:20.156',-0.045
'0:20.158',-0.025
'0:20.161',0.010
'0:20.164',0.035
'0:20.167',0.045
'0:20.169',0.055
'0:20.172',0.055
'0:20.175',0.035
'0:20.178',0.005
'0:20.181',-0.030
'0:20.183',-0.050
'0:20.186',-0.080
'0:20.189',-0.070
'0:20.192',-0.060
'0:20.194',-0.060
'0:20.197',-0.050
'0:20.200',-0.060
'0:20.203',-0.085
'0:20.206',-0.100
'0:20.208',-0.105
'0:20.211',-0.100
'0:20.214',-0.130
'0:20.217',-0.160
'0:20.219',-0.200
'0:20.222',-0.215
'0:20.225',-0.220
'0:20.228',-0.235
'0:20.231',-0.265
'0:20.233',-0.290
'0:20.236',-0.315
'0:20.239',-0.335
'0:20.242',-0.345
'0:20.244',-0.355
'0:20.247',-0.360
'0:20.250',-0.385
'0:20.253',-0.400
'0:20.256',-0.410
'0:20.258',-0.410
'0:20.261',-0.410
'0:20.264',-0.425
'0:20.267',-0.440
'0:20.269',-0.445
'0:20.272',-0.455
'0:20.275',-0.440
'0:20.278',-0.435
'0:20.281',-0.435
'0:20.283',-0.435
'0:20.286',-0.435
'0:20.289',-0.415
'0:20.292',-0.405
'0:20.294',-0.370
'0:20.297',-0.365
'0:20.300',-0.345
'0:20.303',-0.305
'0:20.306',-0.190
'0:20.308',0.065
'0:20.311',0.475
'0:20.314',1.040
'0:20.317',1.520
'0:20.319',1.710
'0:20.322',1.610
'0:20.325',1.440
'0:20.328',1.330
'0:20.331',1.270
'0:20.333',1.215
'0:20.336',1.125
'0:20.339',1.020
'0:20.342',0.935
'0:20.344',0.860
'0:20.347',0.780
'0:20.350',0.700
'0:20.353',0.605
'0:20.356',0.515
'0:20.358',0.425
'0:20.361',0.325
'0:20.364',0.200
'0:20.367',0.060
'0:20.369',-0.070
'0:20.372',-0.205
'0:20.375',-0.320
'0:20.378',-0.465
'0:20.381',-0.620
'0:20.383',-0.775
'0:20.386',-0.920
'0:20.389',-1.060
'0:20.392',-1.195
'0:20.394',-1.310
'0:20.397',-1.435
'0:20.400',-1.545
'0:20.403',-1.640
'0:20.406',-1.705
'0:20.408',-1.755
'0:20.411',-1.775
'0:20.414',-1.795
'0:20.417',-1.850
'0:20.419',-1.900
'0:20.422',-2.005
'0:20.425',-2.070
'0:20.428',-2.125
'0:20.431',-2.190
'0:20.433',-2.255
'0:20.436',-2.330
'0:20.439',-2.385
'0:20.442',-2.375
'0:20.444',-2.300
'0:20.447',-2.195
'0:20.450',-2.070
'0:20.453',-1.955
'0:20.456',-1.795
'0:20.458',-1.625
'0:20.461',-1.490
'0:20.464',-1.410
'0:20.467',-1.365
'0:20.469',-1.325
'0:20.472',-1.285
'0:20.475',-1.215
'0:20.478',-1.165
'0:20.481',-1.115
'0:20.483',-1.050
'0:20.486',-1.035
'0:20.489',-1.020
'0:20.492',-1.010
'0:20.494',-0.990
'0:20.497',-0.945
'0:20.500',-0.900
'0:20.503',-0.845
'0:20.506',-0.795
'0:20.508',-0.705
'0:20.511',-0.645
'0:20.514',-0.585
'0:20.517',-0.525
'0:20.519',-0.465
'0:20.522',-0.390
'0:20.525',-0.300
'0:20.528',-0.215
'0:20.531',-0.140
'0:20.533',-0.095
'0:20.536',-0.040
'0:20.539',0.010
'0:20.542',0.065
'0:20.544',0.110
'0:20.547',0.125
'0:20.550',0.140
'0:20.553',0.150
'0:20.556',0.175
'0:20.558',0.200
'0:20.561',0.230
'0:20.564',0.245
'0:20.567',0.255
'0:20.569',0.280
'0:20.572',0.285
'0:20.575',0.315
'0:20.578',0.345
'0:20.581',0.380
'0:20.583',0.400
'0:20.586',0.415
'0:20.589',0.415
'0:20.592',0.460
'0:20.594',0.485
'0:20.597',0.530
'0:20.600',0.545
'0:20.603',0.560
'0:20.606',0.575
'0:20.608',0.605
'0:20.611',0.630
'0:20.614',0.665
'0:20.617',0.680
'0:20.619',0.700
'0:20.622',0.720
'0:20.625',0.765
'0:20.628',0.785
'0:20.631',0.810
'0:20.633',0.835
'0:20.636',0.850
'0:20.639',0.865
'0:20.642',0.885
'0:20.644',0.915
'0:20.647',0.925
'0:20.650',0.930
'0:20.653',0.935
'0:20.656',0.950
'0:20.658',0.960
'0:20.661',0.965
'0:20.664',0.965
'0:20.667',0.955
'0:20.669',0.940
'0:20.672',0.925
'0:20.675',0.920
'0:20.678',0.925
'0:20.681',0.905
'0:20.683',0.885
'0:20.686',0.870
'0:20.689',0.850
'0:20.692',0.825
'0:20.694',0.815
'0:20.697',0.790
'0:20.700',0.755
'0:20.703',0.700
'0:20.706',0.685
'0:20.708',0.665
'0:20.711',0.645
'0:20.714',0.620
'0:20.717',0.585
'0:20.719',0.535
'0:20.722',0.490
'0:20.725',0.465
'0:20.728',0.435
'0:20.731',0.410
'0:20.733',0.365
'0:20.736',0.310
'0:20.739',0.275
'0:20.742',0.240
'0:20.744',0.215
'0:20.747',0.170
'0:20.750',0.125
'0:20.753',0.080
'0:20.756',0.045
'0:20.758',0.030
'0:20.761',-0.005
'0:20.764',-0.040
'0:20.767',-0.085
'0:20.769',-0.120
'0:20.772',-0.145
'0:20.775',-0.155
'0:20.778',-0.155
'0:20.781',-0.185
'0:20.783',-0.205
'0:20.786',-0.240
'0:20.789',-0.260
'0:20.792',-0.275
'0:20.794',-0.280
'0:20.797',-0.285
'0:20.800',-0.315
'0:20.803',-0.325
'0:20.806',-0.330
'0:20.808',-0.330
'0:20.811',-0.330
'0:20.814',-0.350
'0:20.817',-0.355
'0:20.819',-0.355
'0:20.822',-0.350
'0:20.825',-0.350
'0:20.828',-0.335
'0:20.831',-0.350
'0:20.833',-0.355
'0:20.836',-0.355
'0:20.839',-0.360
'0:20.842',-0.350
'0:20.844',-0.350
'0:20.847',-0.340
'0:20.850',-0.360
'0:20.853',-0.335
'0:20.856',-0.330
'0:20.858',-0.300
'0:20.861',-0.275
'0:20.864',-0.260
'0:20.867',-0.235
'0:20.869',-0.205
'0:20.872',-0.170
'0:20.875',-0.105
'0:20.878',-0.080
'0:20.881',-0.060
'0:20.883',-0.060
'0:20.886',-0.050
'0:20.889',-0.045
'0:20.892',-0.030
'0:20.894',0.005
'0:20.897',0.030
'0:20.900',0.045
'0:20.903',0.045
'0:20.906',0.010
'0:20.908',0.000
'0:20.911',-0.015
'0:20.914',-0.025
'0:20.917',-0.035
'0:20.919',-0.045
'0:20.922',-0.040
'0:20.925',-0.030
'0:20.928',-0.010
'0:20.931',-0.010
'0:20.933',-0.025
'0:20.936',-0.050
'0:20.939',-0.060
'0:20.942',-0.080
'0:20.944',-0.085
'0:20.947',-0.110
'0:20.950',-0.140
'0:20.953',-0.170
'0:20.956',-0.200
'0:20.958',-0.210
'0:20.961',-0.225
'0:20.964',-0.250
'0:20.967',-0.285
'0:20.969',-0.315
'0:20.972',-0.335
'0:20.975',-0.350
'0:20.978',-0.370
'0:20.981',-0.385
'0:20.983',-0.410
'0:20.986',-0.430
'0:20.989',-0.445
'0:20.992',-0.445
'0:20.994',-0.445
'0:20.997',-0.465
'0:21.000',-0.480
'0:21.003',-0.490
'0:21.006',-0.490
'0:21.008',-0.485
'0:21.011',-0.485
'0:21.014',-0.490
'0:21.017',-0.500
'0:21.019',-0.510
'0:21.022',-0.505
'0:21.025',-0.495
'0:21.028',-0.485
'0:21.031',-0.495
'0:21.033',-0.525
'0:21.036',-0.540
'0:21.039',-0.540
'0:21.042',-0.520
'0:21.044',-0.505
'0:21.047',-0.505
'0:21.050',-0.505
'0:21.053',-0.510
'0:21.056',-0.515
'0:21.058',-0.510
'0:21.061',-0.500
'0:21.064',-0.500
'0:21.067',-0.520
'0:21.069',-0.510
'0:21.072',-0.520
'0:21.075',-0.515
'0:21.078',-0.515
'0:21.081',-0.510
'0:21.083',-0.515
'0:21.086',-0.520
'0:21.089',-0.530
'0:21.092',-0.520
'0:21.094',-0.505
'0:21.097',-0.515
'0:21.100',-0.510
'0:21.103',-0.515
'0:21.106',-0.510
'0:21.108',-0.510
'0:21.111',-0.495
'0:21.114',-0.490
'0:21.117',-0.485
'0:21.119',-0.495
'0:21.122',-0.490
'0:21.125',-0.475
'0:21.128',-0.470
'0:21.131',-0.485
'0:21.133',-0.500
'0:21.136',-0.500
'0:21.139',-0.495
'0:21.142',-0.485
'0:21.144',-0.465
'0:21.147',-0.460
'0:21.150',-0.465
'0:21.153',-0.460
'0:21.156',-0.465
'0:21.158',-0.445
'0:21.161',-0.430
'0:21.164',-0.410
'0:21.167',-0.405
'0:21.169',-0.395
'0:21.172',-0.375
'0:21.175',-0.330
'0:21.178',-0.265
'0:21.181',-0.125
'0:21.183',0.155
'0:21.186',0.670
'0:21.189',1.280
'0:21.192',1.665
'0:21.194',1.700
'0:21.197',1.510
'0:21.200',1.350
'0:21.203',1.265
'0:21.206',1.210
'0:21.208',1.160
'0:21.211',1.075
'0:21.214',0.970
'0:21.217',0.880
'0:21.219',0.805
'0:21.222',0.730
'0:21.225',0.675
'0:21.228',0.625
'0:21.231',0.515
'0:21.233',0.430
'0:21.236',0.320
'0:21.239',0.230
'0:21.242',0.120
'0:21.244',0.015
'0:21.247',-0.120
'0:21.250',-0.290
'0:21.253',-0.490
'0:21.256',-0.695
'0:21.258',-0.880
'0:21.261',-1.050
'0:21.264',-1.210
'0:21.267',-1.380
'0:21.269',-1.545
'0:21.272',-1.700
'0:21.275',-1.815
'0:21.278',-1.895
'0:21.281',-1.975
'0:21.283',-2.020
'0:21.286',-2.060
'0:21.289',-2.095
'0:21.292',-2.130
'0:21.294',-2.170
'0:21.297',-2.260
'0:21.300',-2.345
'0:21.303',-2.390
'0:21.306',-2.440
'0:21.308',-2.485
'0:21.311',-2.535
'0:21.314',-2.550
'0:21.317',-2.520
'0:21.319',-2.430
'0:21.322',-2.290
'0:21.325',-2.135
'0:21.328',-1.960
'0:21.331',-1.800
'0:21.333',-1.650
'0:21.336',-1.525
'0:21.339',-1.415
'0:21.342',-1.330
'0:21.344',-1.265
'0:21.347',-1.210
'0:21.350',-1.150
'0:21.353',-1.090
'0:21.356',-1.055
'0:21.358',-0.980
'0:21.361',-0.935
'0:21.364',-0.920
'0:21.367',-0.895
'0:21.369',-0.880
'0:21.372',-0.830
'0:21.375',-0.755
'0:21.378',-0.675
'0:21.381',-0.625
'0:21.383',-0.555
'0:21.386',-0.515
'0:21.389',-0.470
'0:21.392',-0.395
'0:21.394',-0.325
'0:21.397',-0.240
'0:21.400',-0.160
'0:21.403',-0.095
'0:21.406',-0.040
'0:21.408',0.035
'0:21.411',0.100
'0:21.414',0.150
'0:21.417',0.185
'0:21.419',0.220
'0:21.422',0.235
'0:21.425',0.260
'0:21.428',0.280
'0:21.431',0.290
'0:21.433',0.300
'0:21.436',0.315
'0:21.439',0.320
'0:21.442',0.345
'0:21.444',0.365
'0:21.447',0.375
'0:21.450',0.400
'0:21.453',0.415
'0:21.456',0.440
'0:21.458',0.465
'0:21.461',0.490
'0:21.464',0.505
'0:21.467',0.525
'0:21.469',0.540
'0:21.472',0.565
'0:21.475',0.595
'0:21.478',0.630
'0:21.481',0.640
'0:21.483',0.670
'0:21.486',0.685
'0:21.489',0.715
'0:21.492',0.760
'0:21.494',0.785
'0:21.497',0.830
'0:21.500',0.840
'0:21.503',0.865
'0:21.506',0.880
'0:21.508',0.920
'0:21.511',0.955
'0:21.514',0.965
'0:21.517',0.975
'0:21.519',0.995
'0:21.522',1.010
'0:21.525',1.045
'0:21.528',1.065
'0:21.531',1.075
'0:21.533',1.070
'0:21.536',1.070
'0:21.539',1.070
'0:21.542',1.095
'0:21.544',1.110
'0:21.547',1.100
'0:21.550',1.080
'0:21.553',1.055
'0:21.556',1.040
'0:21.558',1.040
'0:21.561',1.035
'0:21.564',1.015
'0:21.567',0.985
'0:21.569',0.955
'0:21.572',0.935
'0:21.575',0.915
'0:21.578',0.905
'0:21.581',0.875
'0:21.583',0.840
'0:21.586',0.790
'0:21.589',0.765
'0:21.592',0.745
'0:21.594',0.735
'0:21.597',0.715
'0:21.600',0.685
'0:21.603',0.670
'0:21.606',0.655
'0:21.608',0.655
'0:21.611',0.660
'0:21.614',0.650
'0:21.617',0.630
'0:21.619',0.610
'0:21.622',0.590
'0:21.625',0.585
'0:21.628',0.545
'0:21.631',0.510
'0:21.633',0.480
'0:21.636',0.465
'0:21.639',0.435
'0:21.642',0.385
'0:21.644',0.335
'0:21.647',0.275
'0:21.650',0.225
'0:21.653',0.185
'0:21.656',0.150
'0:21.658',0.140
'0:21.661',0.125
'0:21.664',0.120
'0:21.667',0.095
'0:21.669',0.075
'0:21.672',0.030
'0:21.675',0.025
'0:21.678',0.005
'0:21.681',-0.020
'0:21.683',-0.055
'0:21.686',-0.095
'0:21.689',-0.140
'0:21.692',-0.150
'0:21.694',-0.170
'0:21.697',-0.195
'0:21.700',-0.230
'0:21.703',-0.280
'0:21.706',-0.300
'0:21.708',-0.310
'0:21.711',-0.330
'0:21.714',-0.360
'0:21.717',-0.390
'0:21.719',-0.405
'0:21.722',-0.410
'0:21.725',-0.425
'0:21.728',-0.425
'0:21.731',-0.445
'0:21.733',-0.455
'0:21.736',-0.490
'0:21.739',-0.505
'0:21.742',-0.490
'0:21.744',-0.475
'0:21.747',-0.485
'0:21.750',-0.495
'0:21.753',-0.500
'0:21.756',-0.510
'0:21.758',-0.495
'0:21.761',-0.490
'0:21.764',-0.490
'0:21.767',-0.490
'0:21.769',-0.500
'0:21.772',-0.500
'0:21.775',-0.495
'0:21.778',-0.490
'0:21.781',-0.500
'0:21.783',-0.505
'0:21.786',-0.510
'0:21.789',-0.495
'0:21.792',-0.485
'0:21.794',-0.460
'0:21.797',-0.470
'0:21.800',-0.480
'0:21.803',-0.495
'0:21.806',-0.495
'0:21.808',-0.480
'0:21.811',-0.465
'0:21.814',-0.475
'0:21.817',-0.485
'0:21.819',-0.510
'0:21.822',-0.485
'0:21.825',-0.470
'0:21.828',-0.470
'0:21.831',-0.480
'0:21.833',-0.485
'0:21.836',-0.495
'0:21.839',-0.500
'0:21.842',-0.495
'0:21.844',-0.490
'0:21.847',-0.495
'0:21.850',-0.505
'0:21.853',-0.500
'0:21.856',-0.520
'0:21.858',-0.510
'0:21.861',-0.500
'0:21.864',-0.500
'0:21.867',-0.515
'0:21.869',-0.525
'0:21.872',-0.525
'0:21.875',-0.510
'0:21.878',-0.495
'0:21.881',-0.490
'0:21.883',-0.495
'0:21.886',-0.500
'0:21.889',-0.500
'0:21.892',-0.505
'0:21.894',-0.500
'0:21.897',-0.510
'0:21.900',-0.505
'0:21.903',-0.510
'0:21.906',-0.485
'0:21.908',-0.475
'0:21.911',-0.470
'0:21.914',-0.465
'0:21.917',-0.480
'0:21.919',-0.500
'0:21.922',-0.500
'0:21.925',-0.485
'0:21.928',-0.465
'0:21.931',-0.470
'0:21.933',-0.480
'0:21.936',-0.490
'0:21.939',-0.495
'0:21.942',-0.485
'0:21.944',-0.465
'0:21.947',-0.470
'0:21.950',-0.470
'0:21.953',-0.470
'0:21.956',-0.470
'0:21.958',-0.475
'0:21.961',-0.455
'0:21.964',-0.445
'0:21.967',-0.445
'0:21.969',-0.460
'0:21.972',-0.465
'0:21.975',-0.460
'0:21.978',-0.440
'0:21.981',-0.445
'0:21.983',-0.440
'0:21.986',-0.430
'0:21.989',-0.440
'0:21.992',-0.430
'0:21.994',-0.435
'0:21.997',-0.440
'0:22.000',-0.445
'0:22.003',-0.415
'0:22.006',-0.430
'0:22.008',-0.395
'0:22.011',-0.380
'0:22.014',-0.375
'0:22.017',-0.375
'0:22.019',-0.375
'0:22.022',-0.395
'0:22.025',-0.375
'0:22.028',-0.370
'0:22.031',-0.360
'0:22.033',-0.355
'0:22.036',-0.325
'0:22.039',-0.335
'0:22.042',-0.295
'0:22.044',-0.250
'0:22.047',-0.175
'0:22.050',-0.015
'0:22.053',0.315
'0:22.056',0.870
'0:22.058',1.425
'0:22.061',1.750
'0:22.064',1.735
'0:22.067',1.565
'0:22.069',1.420
'0:22.072',1.340
'0:22.075',1.305
'0:22.078',1.235
'0:22.081',1.140
'0:22.083',1.050
'0:22.086',0.955
'0:22.089',0.870
'0:22.092',0.785
'0:22.094',0.715
'0:22.097',0.625
'0:22.100',0.505
'0:22.103',0.385
'0:22.106',0.255
'0:22.108',0.115
'0:22.111',-0.030
'0:22.114',-0.190
'0:22.117',-0.345
'0:22.119',-0.530
'0:22.122',-0.680
'0:22.125',-0.850
'0:22.128',-1.035
'0:22.131',-1.245
'0:22.133',-1.440
'0:22.136',-1.610
'0:22.139',-1.740
'0:22.142',-1.855
'0:22.144',-1.925
'0:22.147',-2.000
'0:22.150',-2.065
'0:22.153',-2.125
'0:22.156',-2.165
'0:22.158',-2.180
'0:22.161',-2.210
'0:22.164',-2.275
'0:22.167',-2.355
'0:22.169',-2.420
'0:22.172',-2.480
'0:22.175',-2.505
'0:22.178',-2.550
'0:22.181',-2.585
'0:22.183',-2.600
'0:22.186',-2.540
'0:22.189',-2.420
'0:22.192',-2.250
'0:22.194',-2.065
'0:22.197',-1.890
'0:22.200',-1.735
'0:22.203',-1.605
'0:22.206',-1.505
'0:22.208',-1.400
'0:22.211',-1.320
'0:22.214',-1.260
'0:22.217',-1.210
'0:22.219',-1.155
'0:22.222',-1.110
'0:22.225',-1.050
'0:22.228',-1.005
'0:22.231',-1.010
'0:22.233',-0.990
'0:22.236',-0.960
'0:22.239',-0.925
'0:22.242',-0.850
'0:22.244',-0.775
'0:22.247',-0.700
'0:22.250',-0.650
'0:22.253',-0.600
'0:22.256',-0.545
'0:22.258',-0.480
'0:22.261',-0.400
'0:22.264',-0.340
'0:22.267',-0.260
'0:22.269',-0.175
'0:22.272',-0.095
'0:22.275',-0.020
'0:22.278',0.050
'0:22.281',0.100
'0:22.283',0.145
'0:22.286',0.170
'0:22.289',0.215
'0:22.292',0.245
'0:22.294',0.275
'0:22.297',0.290
'0:22.300',0.295
'0:22.303',0.310
'0:22.306',0.330
'0:22.308',0.360
'0:22.311',0.390
'0:22.314',0.400
'0:22.317',0.410
'0:22.319',0.430
'0:22.322',0.435
'0:22.325',0.465
'0:22.328',0.495
'0:22.331',0.535
'0:22.333',0.555
'0:22.336',0.600
'0:22.339',0.625
'0:22.342',0.675
'0:22.344',0.740
'0:22.347',0.780
'0:22.350',0.815
'0:22.353',0.870
'0:22.356',0.940
'0:22.358',1.010
'0:22.361',1.065
'0:22.364',1.110
'0:22.367',1.140
'0:22.369',1.160
'0:22.372',1.185
'0:22.375',1.230
'0:22.378',1.285
'0:22.381',1.315
'0:22.383',1.320
'0:22.386',1.325
'0:22.389',1.325
'0:22.392',1.335
'0:22.394',1.345
'0:22.397',1.340
'0:22.400',1.355
'0:22.403',1.365
'0:22.406',1.375
'0:22.408',1.375
'0:22.411',1.385
'0:22.414',1.365
'0:22.417',1.360
'0:22.419',1.340
'0:22.422',1.315
'0:22.425',1.295
'0:22.428',1.265
'0:22.431',1.235
'0:22.433',1.190
'0:22.436',1.145
'0:22.439',1.110
'0:22.442',1.070
'0:22.444',1.050
'0:22.447',0.975
'0:22.450',0.920
'0:22.453',0.880
'0:22.456',0.825
'0:22.458',0.785
'0:22.461',0.760
'0:22.464',0.705
'0:22.467',0.645
'0:22.469',0.570
'0:22.472',0.520
'0:22.475',0.470
'0:22.478',0.430
'0:22.481',0.375
'0:22.483',0.320
'0:22.486',0.260
'0:22.489',0.205
'0:22.492',0.165
'0:22.494',0.130
'0:22.497',0.085
'0:22.500',0.035
'0:22.503',-0.020
'0:22.506',-0.055
'0:22.508',-0.085
'0:22.511',-0.115
'0:22.514',-0.155
'0:22.517',-0.190
'0:22.519',-0.230
'0:22.522',-0.260
'0:22.525',-0.275
'0:22.528',-0.290
'0:22.531',-0.320
'0:22.533',-0.355
'0:22.536',-0.375
'0:22.539',-0.390
'0:22.542',-0.395
'0:22.544',-0.390
'0:22.547',-0.415
'0:22.550',-0.435
'0:22.553',-0.445
'0:22.556',-0.455
'0:22.558',-0.460
'0:22.561',-0.450
'0:22.564',-0.470
'0:22.567',-0.480
'0:22.569',-0.495
'0:22.572',-0.490
'0:22.575',-0.490
'0:22.578',-0.495
'0:22.581',-0.500
'0:22.583',-0.505
'0:22.586',-0.515
'0:22.589',-0.525
'0:22.592',-0.515
'0:22.594',-0.515
'0:22.597',-0.515
'0:22.600',-0.520
'0:22.603',-0.520
'0:22.606',-0.525
'0:22.608',-0.525
'0:22.611',-0.515
'0:22.614',-0.515
'0:22.617',-0.515
'0:22.619',-0.540
'0:22.622',-0.530
'0:22.625',-0.525
'0:22.628',-0.520
'0:22.631',-0.520
'0:22.633',-0.515
'0:22.636',-0.530
'0:22.639',-0.515
'0:22.642',-0.500
'0:22.644',-0.490
'0:22.647',-0.495
'0:22.650',-0.495
'0:22.653',-0.500
'0:22.656',-0.505
'0:22.658',-0.495
'0:22.661',-0.500
'0:22.664',-0.480
'0:22.667',-0.480
'0:22.669',-0.490
'0:22.672',-0.490
'0:22.675',-0.490
'0:22.678',-0.470
'0:22.681',-0.465
'0:22.683',-0.465
'0:22.686',-0.460
'0:22.689',-0.465
'0:22.692',-0.450
'0:22.694',-0.435
'0:22.697',-0.460
'0:22.700',-0.450
'0:22.703',-0.460
'0:22.706',-0.450
'0:22.708',-0.445
'0:22.711',-0.430
'0:22.714',-0.435
'0:22.717',-0.435
'0:22.719',-0.430
'0:22.722',-0.435
'0:22.725',-0.440
'0:22.728',-0.430
'0:22.731',-0.440
'0:22.733',-0.435
'0:22.736',-0.450
'0:22.739',-0.445
'0:22.742',-0.435
'0:22.744',-0.420
'0:22.747',-0.430
'0:22.750',-0.430
'0:22.753',-0.430
'0:22.756',-0.440
'0:22.758',-0.425
'0:22.761',-0.410
'0:22.764',-0.415
'0:22.767',-0.410
'0:22.769',-0.415
'0:22.772',-0.425
'0:22.775',-0.420
'0:22.778',-0.410
'0:22.781',-0.400
'0:22.783',-0.400
'0:22.786',-0.400
'0:22.789',-0.410
'0:22.792',-0.395
'0:22.794',-0.395
'0:22.797',-0.395
'0:22.800',-0.400
'0:22.803',-0.420
'0:22.806',-0.410
'0:22.808',-0.400
'0:22.811',-0.385
'0:22.814',-0.375
'0:22.817',-0.385
'0:22.819',-0.405
'0:22.822',-0.405
'0:22.825',-0.380
'0:22.828',-0.355
'0:22.831',-0.365
'0:22.833',-0.370
'0:22.836',-0.370
'0:22.839',-0.385
'0:22.842',-0.370
'0:22.844',-0.370
'0:22.847',-0.355
'0:22.850',-0.345
'0:22.853',-0.350
'0:22.856',-0.335
'0:22.858',-0.335
'0:22.861',-0.340
'0:22.864',-0.345
'0:22.867',-0.345
'0:22.869',-0.340
'0:22.872',-0.345
'0:22.875',-0.320
'0:22.878',-0.300
'0:22.881',-0.305
'0:22.883',-0.295
'0:22.886',-0.300
'0:22.889',-0.290
'0:22.892',-0.270
'0:22.894',-0.245
'0:22.897',-0.225
'0:22.900',-0.195
'0:22.903',-0.145
'0:22.906',-0.020
'0:22.908',0.270
'0:22.911',0.750
'0:22.914',1.330
'0:22.917',1.745
'0:22.919',1.845
'0:22.922',1.680
'0:22.925',1.510
'0:22.928',1.445
'0:22.931',1.375
'0:22.933',1.305
'0:22.936',1.215
'0:22.939',1.125
'0:22.942',1.045
'0:22.944',0.980
'0:22.947',0.885
'0:22.950',0.790
'0:22.953',0.690
'0:22.956',0.580
'0:22.958',0.460
'0:22.961',0.335
'0:22.964',0.200
'0:22.967',0.055
'0:22.969',-0.115
'0:22.972',-0.315
'0:22.975',-0.510
'0:22.978',-0.705
'0:22.981',-0.915
'0:22.983',-1.140
'0:22.986',-1.375
'0:22.989',-1.570
'0:22.992',-1.720
'0:22.994',-1.850
'0:22.997',-1.975
'0:23.000',-2.045
'0:23.003',-2.085
'0:23.006',-2.125
'0:23.008',-2.125
'0:23.011',-2.135
'0:23.014',-2.200
'0:23.017',-2.265
'0:23.019',-2.350
'0:23.022',-2.405
'0:23.025',-2.430
'0:23.028',-2.460
'0:23.031',-2.515
'0:23.033',-2.550
'0:23.036',-2.525
'0:23.039',-2.420
'0:23.042',-2.260
'0:23.044',-2.075
'0:23.047',-1.885
'0:23.050',-1.690
'0:23.053',-1.540
'0:23.056',-1.410
'0:23.058',-1.270
'0:23.061',-1.175
'0:23.064',-1.095
'0:23.067',-1.015
'0:23.069',-0.950
'0:23.072',-0.860
'0:23.075',-0.765
'0:23.078',-0.690
'0:23.081',-0.655
'0:23.083',-0.610
'0:23.086',-0.560
'0:23.089',-0.485
'0:23.092',-0.390
'0:23.094',-0.275
'0:23.097',-0.175
'0:23.100',-0.080
'0:23.103',-0.005
'0:23.106',0.040
'0:23.108',0.070
'0:23.111',0.135
'0:23.114',0.190
'0:23.117',0.265
'0:23.119',0.335
'0:23.122',0.410
'0:23.125',0.485
'0:23.128',0.555
'0:23.131',0.600
'0:23.133',0.640
'0:23.136',0.655
'0:23.139',0.675
'0:23.142',0.685
'0:23.144',0.695
'0:23.147',0.685
'0:23.150',0.680
'0:23.153',0.670
'0:23.156',0.665
'0:23.158',0.675
'0:23.161',0.685
'0:23.164',0.690
'0:23.167',0.690
'0:23.169',0.690
'0:23.172',0.695
'0:23.175',0.725
'0:23.178',0.740
'0:23.181',0.750
'0:23.183',0.760
'0:23.186',0.770
'0:23.189',0.785
'0:23.192',0.815
'0:23.194',0.840
'0:23.197',0.875
'0:23.200',0.905
'0:23.203',0.930
'0:23.206',0.950
'0:23.208',0.990
'0:23.211',1.030
'0:23.214',1.060
'0:23.217',1.075
'0:23.219',1.085
'0:23.222',1.120
'0:23.225',1.160
'0:23.228',1.190
'0:23.231',1.200
'0:23.233',1.215
'0:23.236',1.220
'0:23.239',1.230
'0:23.242',1.250
'0:23.244',1.290
'0:23.247',1.280
'0:23.250',1.280
'0:23.253',1.270
'0:23.256',1.265
'0:23.258',1.285
'0:23.261',1.295
'0:23.264',1.280
'0:23.267',1.270
'0:23.269',1.240
'0:23.272',1.240
'0:23.275',1.230
'0:23.278',1.220
'0:23.281',1.180
'0:23.283',1.145
'0:23.286',1.105
'0:23.289',1.085
'0:23.292',1.050
'0:23.294',1.025
'0:23.297',0.990
'0:23.300',0.945
'0:23.303',0.890
'0:23.306',0.840
'0:23.308',0.800
'0:23.311',0.765
'0:23.314',0.725
'0:23.317',0.680
'0:23.319',0.635
'0:23.322',0.575
'0:23.325',0.545
'0:23.328',0.500
'0:23.331',0.445
'0:23.333',0.390
'0:23.336',0.335
'0:23.339',0.280
'0:23.342',0.240
'0:23.344',0.200
'0:23.347',0.150
'0:23.350',0.110
'0:23.353',0.070
'0:23.356',0.035
'0:23.358',0.010
'0:23.361',-0.010
'0:23.364',-0.060
'0:23.367',-0.080
'0:23.369',-0.110
'0:23.372',-0.125
'0:23.375',-0.135
'0:23.378',-0.140
'0:23.381',-0.165
'0:23.383',-0.185
'0:23.386',-0.210
'0:23.389',-0.210
'0:23.392',-0.215
'0:23.394',-0.210
'0:23.397',-0.220
'0:23.400',-0.225
'0:23.403',-0.235
'0:23.406',-0.245
'0:23.408',-0.245
'0:23.411',-0.240
'0:23.414',-0.250
'0:23.417',-0.265
'0:23.419',-0.275
'0:23.422',-0.275
'0:23.425',-0.265
'0:23.428',-0.260
'0:23.431',-0.265
'0:23.433',-0.265
'0:23.436',-0.285
'0:23.439',-0.285
'0:23.442',-0.260
'0:23.444',-0.255
'0:23.447',-0.255
'0:23.450',-0.265
'0:23.453',-0.275
'0:23.456',-0.280
'0:23.458',-0.285
'0:23.461',-0.250
'0:23.464',-0.270
'0:23.467',-0.275
'0:23.469',-0.285
'0:23.472',-0.280
'0:23.475',-0.275
'0:23.478',-0.255
'0:23.481',-0.255
'0:23.483',-0.265
'0:23.486',-0.265
'0:23.489',-0.250
'0:23.492',-0.245
'0:23.494',-0.230
'0:23.497',-0.225
'0:23.500',-0.230
'0:23.503',-0.225
'0:23.506',-0.235
'0:23.508',-0.225
'0:23.511',-0.210
'0:23.514',-0.215
'0:23.517',-0.215
'0:23.519',-0.205
'0:23.522',-0.225
'0:23.525',-0.210
'0:23.528',-0.200
'0:23.531',-0.210
'0:23.533',-0.215
'0:23.536',-0.230
'0:23.539',-0.215
'0:23.542',-0.220
'0:23.544',-0.200
'0:23.547',-0.190
'0:23.550',-0.195
'0:23.553',-0.225
'0:23.556',-0.230
'0:23.558',-0.220
'0:23.561',-0.215
'0:23.564',-0.225
'0:23.567',-0.225
'0:23.569',-0.230
'0:23.572',-0.215
'0:23.575',-0.215
'0:23.578',-0.195
'0:23.581',-0.200
'0:23.583',-0.215
'0:23.586',-0.215
'0:23.589',-0.225
'0:23.592',-0.200
'0:23.594',-0.200
'0:23.597',-0.195
'0:23.600',-0.210
'0:23.603',-0.240
'0:23.606',-0.225
'0:23.608',-0.215
'0:23.611',-0.200
'0:23.614',-0.190
'0:23.617',-0.200
'0:23.619',-0.195
'0:23.622',-0.205
'0:23.625',-0.190
'0:23.628',-0.185
'0:23.631',-0.190
'0:23.633',-0.200
'0:23.636',-0.205
'0:23.639',-0.215
'0:23.642',-0.205
'0:23.644',-0.190
'0:23.647',-0.195
'0:23.650',-0.195
'0:23.653',-0.195
'0:23.656',-0.220
'0:23.658',-0.200
'0:23.661',-0.185
'0:23.664',-0.195
'0:23.667',-0.200
'0:23.669',-0.205
'0:23.672',-0.205
'0:23.675',-0.185
'0:23.678',-0.180
'0:23.681',-0.180
'0:23.683',-0.185
'0:23.686',-0.195
'0:23.689',-0.175
'0:23.692',-0.170
'0:23.694',-0.155
'0:23.697',-0.180
'0:23.700',-0.175
'0:23.703',-0.180
'0:23.706',-0.165
'0:23.708',-0.150
'0:23.711',-0.140
'0:23.714',-0.140
'0:23.717',-0.130
'0:23.719',-0.125
'0:23.722',-0.080
'0:23.725',-0.035
'0:23.728',0.050
'0:23.731',0.200
'0:23.733',0.530
'0:23.736',1.075
'0:23.739',1.660
'0:23.742',1.965
'0:23.744',1.925
'0:23.747',1.735
'0:23.750',1.590
'0:23.753',1.525
'0:23.756',1.470
'0:23.758',1.405
'0:23.761',1.340
'0:23.764',1.255
'0:23.767',1.160
'0:23.769',1.100
'0:23.772',1.045
'0:23.775',0.995
'0:23.778',0.905
'0:23.781',0.785
'0:23.783',0.630
'0:23.786',0.480
'0:23.789',0.340
'0:23.792',0.205
'0:23.794',0.060
'0:23.797',-0.125
'0:23.800',-0.370
'0:23.803',-0.620
'0:23.806',-0.855
'0:23.808',-1.045
'0:23.811',-1.210
'0:23.814',-1.365
'0:23.817',-1.480
'0:23.819',-1.555
'0:23.822',-1.650
'0:23.825',-1.725
'0:23.828',-1.785
'0:23.831',-1.865
'0:23.833',-1.970
'0:23.836',-2.060
'0:23.839',-2.165
'0:23.842',-2.240
'0:23.844',-2.300
'0:23.847',-2.385
'0:23.850',-2.435
'0:23.853',-2.425
'0:23.856',-2.340
'0:23.858',-2.175
'0:23.861',-1.980
'0:23.864',-1.820
'0:23.867',-1.650
'0:23.869',-1.535
'0:23.872',-1.415
'0:23.875',-1.310
'0:23.878',-1.225
'0:23.881',-1.165
'0:23.883',-1.115
'0:23.886',-1.075
'0:23.889',-1.030
'0:23.892',-0.990
'0:23.894',-0.955
'0:23.897',-0.940
'0:23.900',-0.915
'0:23.903',-0.885
'0:23.906',-0.825
'0:23.908',-0.735
'0:23.911',-0.645
'0:23.914',-0.585
'0:23.917',-0.520
'0:23.919',-0.480
'0:23.922',-0.440
'0:23.925',-0.360
'0:23.928',-0.275
'0:23.931',-0.200
'0:23.933',-0.120
'0:23.936',-0.050
'0:23.939',0.000
'0:23.942',0.065
'0:23.944',0.130
'0:23.947',0.190
'0:23.950',0.240
'0:23.953',0.270
'0:23.956',0.280
'0:23.958',0.290
'0:23.961',0.315
'0:23.964',0.325
'0:23.967',0.330
'0:23.969',0.335
'0:23.972',0.355
'0:23.975',0.385
'0:23.978',0.410
'0:23.981',0.425
'0:23.983',0.435
'0:23.986',0.455
'0:23.989',0.470
'0:23.992',0.500
'0:23.994',0.540
'0:23.997',0.550
'0:24.000',0.560
'0:24.003',0.585
'0:24.006',0.595
'0:24.008',0.630
'0:24.011',0.675
'0:24.014',0.685
'0:24.017',0.705
'0:24.019',0.730
'0:24.022',0.770
'0:24.025',0.810
'0:24.028',0.840
'0:24.031',0.865
'0:24.033',0.890
'0:24.036',0.910
'0:24.039',0.925
'0:24.042',0.965
'0:24.044',1.005
'0:24.047',1.020
'0:24.050',1.045
'0:24.053',1.050
'0:24.056',1.065
'0:24.058',1.105
'0:24.061',1.125
'0:24.064',1.125
'0:24.067',1.130
'0:24.069',1.120
'0:24.072',1.130
'0:24.075',1.145
'0:24.078',1.160
'0:24.081',1.165
'0:24.083',1.145
'0:24.086',1.135
'0:24.089',1.130
'0:24.092',1.130
'0:24.094',1.120
'0:24.097',1.100
'0:24.100',1.085
'0:24.103',1.055
'0:24.106',1.025
'0:24.108',1.010
'0:24.111',0.985
'0:24.114',0.960
'0:24.117',0.930
'0:24.119',0.890
'0:24.122',0.845
'0:24.125',0.820
'0:24.128',0.780
'0:24.131',0.745
'0:24.133',0.705
'0:24.136',0.660
'0:24.139',0.610
'0:24.142',0.570
'0:24.144',0.535
'0:24.147',0.490
'0:24.150',0.440
'0:24.153',0.395
'0:24.156',0.345
'0:24.158',0.315
'0:24.161',0.290
'0:24.164',0.235
'0:24.167',0.190
'0:24.169',0.135
'0:24.172',0.105
'0:24.175',0.080
'0:24.178',0.060
'0:24.181',0.040
'0:24.183',0.005
'0:24.186',-0.010
'0:24.189',-0.030
'0:24.192',-0.055
'0:24.194',-0.050
'0:24.197',-0.085
'0:24.200',-0.100
'0:24.203',-0.105
'0:24.206',-0.130
'0:24.208',-0.135
'0:24.211',-0.130
'0:24.214',-0.160
'0:24.217',-0.160
'0:24.219',-0.170
'0:24.222',-0.160
'0:24.225',-0.165
'0:24.228',-0.175
'0:24.231',-0.180
'0:24.233',-0.190
'0:24.236',-0.200
'0:24.239',-0.205
'0:24.242',-0.205
'0:24.244',-0.190
'0:24.247',-0.195
'0:24.250',-0.195
'0:24.253',-0.215
'0:24.256',-0.210
'0:24.258',-0.195
'0:24.261',-0.200
'0:24.264',-0.200
'0:24.267',-0.215
'0:24.269',-0.210
'0:24.272',-0.220
'0:24.275',-0.195
'0:24.278',-0.195
'0:24.281',-0.190
'0:24.283',-0.200
'0:24.286',-0.205
'0:24.289',-0.225
'0:24.292',-0.200
'0:24.294',-0.185
'0:24.297',-0.200
'0:24.300',-0.195
'0:24.303',-0.200
'0:24.306',-0.200
'0:24.308',-0.195
'0:24.311',-0.190
'0:24.314',-0.180
'0:24.317',-0.185
'0:24.319',-0.190
'0:24.322',-0.185
'0:24.325',-0.175
'0:24.328',-0.155
'0:24.331',-0.170
'0:24.333',-0.170
'0:24.336',-0.180
'0:24.339',-0.180
'0:24.342',-0.180
'0:24.344',-0.170
'0:24.347',-0.165
'0:24.350',-0.175
'0:24.353',-0.175
'0:24.356',-0.200
'0:24.358',-0.175
'0:24.361',-0.175
'0:24.364',-0.180
'0:24.367',-0.195
'0:24.369',-0.205
'0:24.372',-0.215
'0:24.375',-0.205
'0:24.378',-0.190
'0:24.381',-0.200
'0:24.383',-0.200
'0:24.386',-0.210
'0:24.389',-0.220
'0:24.392',-0.195
'0:24.394',-0.195
'0:24.397',-0.200
'0:24.400',-0.205
'0:24.403',-0.215
'0:24.406',-0.215
'0:24.408',-0.210
'0:24.411',-0.215
'0:24.414',-0.210
'0:24.417',-0.210
'0:24.419',-0.215
'0:24.422',-0.220
'0:24.425',-0.200
'0:24.428',-0.195
'0:24.431',-0.200
'0:24.433',-0.205
'0:24.436',-0.215
'0:24.439',-0.215
'0:24.442',-0.195
'0:24.444',-0.175
'0:24.447',-0.150
'0:24.450',-0.140
'0:24.453',-0.135
'0:24.456',-0.125
'0:24.458',-0.080
'0:24.461',-0.030
'0:24.464',0.005
'0:24.467',0.040
'0:24.469',0.055
'0:24.472',0.065
'0:24.475',0.100
'0:24.478',0.125
'0:24.481',0.145
'0:24.483',0.165
'0:24.486',0.165
'0:24.489',0.170
'0:24.492',0.155
'0:24.494',0.155
'0:24.497',0.130
'0:24.500',0.105
'0:24.503',0.090
'0:24.506',0.095
'0:24.508',0.110
'0:24.511',0.125
'0:24.514',0.100
'0:24.517',0.095
'0:24.519',0.095
'0:24.522',0.065
'0:24.525',0.070
'0:24.528',0.055
'0:24.531',0.035
'0:24.533',0.035
'0:24.536',0.005
'0:24.539',-0.010
'0:24.542',0.010
'0:24.544',0.060
'0:24.547',0.200
'0:24.550',0.535
'0:24.553',1.100
'0:24.556',1.680
'0:24.558',1.930
'0:24.561',1.805
'0:24.564',1.580
'0:24.567',1.430
'0:24.569',1.355
'0:24.572',1.280
'0:24.575',1.185
'0:24.578',1.100
'0:24.581',1.010
'0:24.583',0.910
'0:24.586',0.825
'0:24.589',0.715
'0:24.592',0.610
'0:24.594',0.495
'0:24.597',0.370
'0:24.600',0.230
'0:24.603',0.090
'0:24.606',-0.050
'0:24.608',-0.210
'0:24.611',-0.355
'0:24.614',-0.510
'0:24.617',-0.715
'0:24.619',-0.925
'0:24.622',-1.145
'0:24.625',-1.345
'0:24.628',-1.505
'0:24.631',-1.685
'0:24.633',-1.805
'0:24.636',-1.890
'0:24.639',-1.950
'0:24.642',-1.960
'0:24.644',-1.950
'0:24.647',-2.005
'0:24.650',-2.100
'0:24.653',-2.215
'0:24.656',-2.315
'0:24.658',-2.370
'0:24.661',-2.415
'0:24.664',-2.495
'0:24.667',-2.575
'0:24.669',-2.595
'0:24.672',-2.550
'0:24.675',-2.395
'0:24.678',-2.215
'0:24.681',-2.020
'0:24.683',-1.840
'0:24.686',-1.650
'0:24.689',-1.505
'0:24.692',-1.360
'0:24.694',-1.275
'0:24.697',-1.220
'0:24.700',-1.175
'0:24.703',-1.115
'0:24.706',-1.060
'0:24.708',-1.010
'0:24.711',-0.975
'0:24.714',-0.975
'0:24.717',-0.970
'0:24.719',-0.930
'0:24.722',-0.865
'0:24.725',-0.770
'0:24.728',-0.700
'0:24.731',-0.640
'0:24.733',-0.585
'0:24.736',-0.545
'0:24.739',-0.500
'0:24.742',-0.405
'0:24.744',-0.310
'0:24.747',-0.205
'0:24.750',-0.120
'0:24.753',-0.040
'0:24.756',0.035
'0:24.758',0.110
'0:24.761',0.175
'0:24.764',0.220
'0:24.767',0.240
'0:24.769',0.255
'0:24.772',0.270
'0:24.775',0.295
'0:24.778',0.335
'0:24.781',0.360
'0:24.783',0.380
'0:24.786',0.390
'0:24.789',0.405
'0:24.792',0.450
'0:24.794',0.495
'0:24.797',0.505
'0:24.800',0.520
'0:24.803',0.540
'0:24.806',0.560
'0:24.808',0.595
'0:24.811',0.640
'0:24.814',0.665
'0:24.817',0.680
'0:24.819',0.685
'0:24.822',0.705
'0:24.825',0.745
'0:24.828',0.800
'0:24.831',0.820
'0:24.833',0.850
'0:24.836',0.880
'0:24.839',0.915
'0:24.842',0.965
'0:24.844',1.000
'0:24.847',1.030
'0:24.850',1.065
'0:24.853',1.070
'0:24.856',1.095
'0:24.858',1.125
'0:24.861',1.165
'0:24.864',1.180
'0:24.867',1.190
'0:24.869',1.215
'0:24.872',1.240
'0:24.875',1.260
'0:24.878',1.270
'0:24.881',1.270
'0:24.883',1.265
'0:24.886',1.265
'0:24.889',1.260
'0:24.892',1.270
'0:24.894',1.285
'0:24.897',1.265
'0:24.900',1.250
'0:24.903',1.230
'0:24.906',1.200
'0:24.908',1.190
'0:24.911',1.195
'0:24.914',1.180
'0:24.917',1.145
'0:24.919',1.095
'0:24.922',1.050
'0:24.925',1.015
'0:24.928',1.000
'0:24.931',0.955
'0:24.933',0.920
'0:24.936',0.860
'0:24.939',0.825
'0:24.942',0.795
'0:24.944',0.750
'0:24.947',0.695
'0:24.950',0.635
'0:24.953',0.600
'0:24.956',0.545
'0:24.958',0.495
'0:24.961',0.450
'0:24.964',0.410
'0:24.967',0.365
'0:24.969',0.315
'0:24.972',0.255
'0:24.975',0.220
'0:24.978',0.200
'0:24.981',0.165
'0:24.983',0.130
'0:24.986',0.085
'0:24.989',0.055
'0:24.992',0.030
'0:24.994',0.030
'0:24.997',-0.005
'0:25.000',-0.045
'0:25.003',-0.065
'0:25.006',-0.085
'0:25.008',-0.095
'0:25.011',-0.095
'0:25.014',-0.110
'0:25.017',-0.115
'0:25.019',-0.100
'0:25.022',-0.120
'0:25.025',-0.115
'0:25.028',-0.130
'0:25.031',-0.140
'0:25.033',-0.155
'0:25.036',-0.165
'0:25.039',-0.190
'0:25.042',-0.170
'0:25.044',-0.150
'0:25.047',-0.145
'0:25.050',-0.155
'0:25.053',-0.170
'0:25.056',-0.180
'0:25.058',-0.175
'0:25.061',-0.165
'0:25.064',-0.170
'0:25.067',-0.170
'0:25.069',-0.185
'0:25.072',-0.190
'0:25.075',-0.185
'0:25.078',-0.160
'0:25.081',-0.165
'0:25.083',-0.170
'0:25.086',-0.190
'0:25.089',-0.190
'0:25.092',-0.180
'0:25.094',-0.170
'0:25.097',-0.165
'0:25.100',-0.165
'0:25.103',-0.155
'0:25.106',-0.170
'0:25.108',-0.150
'0:25.111',-0.140
'0:25.114',-0.130
'0:25.117',-0.140
'0:25.119',-0.155
'0:25.122',-0.135
'0:25.125',-0.130
'0:25.128',-0.105
'0:25.131',-0.090
'0:25.133',-0.080
'0:25.136',-0.070
'0:25.139',-0.055
'0:25.142',-0.005
'0:25.144',0.030
'0:25.147',0.060
'0:25.150',0.075
'0:25.153',0.095
'0:25.156',0.115
'0:25.158',0.145
'0:25.161',0.155
'0:25.164',0.175
'0:25.167',0.195
'0:25.169',0.225
'0:25.172',0.240
'0:25.175',0.255
'0:25.178',0.255
'0:25.181',0.220
'0:25.183',0.185
'0:25.186',0.145
'0:25.189',0.130
'0:25.192',0.140
'0:25.194',0.160
'0:25.197',0.140
'0:25.200',0.125
'0:25.203',0.105
'0:25.206',0.090
'0:25.208',0.090
'0:25.211',0.100
'0:25.214',0.065
'0:25.217',0.030
'0:25.219',0.005
'0:25.222',-0.030
'0:25.225',-0.040
'0:25.228',-0.055
'0:25.231',-0.080
'0:25.233',-0.115
'0:25.236',-0.140
'0:25.239',-0.170
'0:25.242',-0.170
'0:25.244',-0.185
'0:25.247',-0.200
'0:25.250',-0.220
'0:25.253',-0.250
'0:25.256',-0.265
'0:25.258',-0.255
'0:25.261',-0.265
'0:25.264',-0.290
'0:25.267',-0.300
'0:25.269',-0.290
'0:25.272',-0.300
'0:25.275',-0.295
'0:25.278',-0.300
'0:25.281',-0.300
'0:25.283',-0.300
'0:25.286',-0.305
'0:25.289',-0.310
'0:25.292',-0.300
'0:25.294',-0.295
'0:25.297',-0.310
'0:25.300',-0.310
'0:25.303',-0.310
'0:25.306',-0.320
'0:25.308',-0.310
'0:25.311',-0.300
'0:25.314',-0.295
'0:25.317',-0.300
'0:25.319',-0.305
'0:25.322',-0.320
'0:25.325',-0.315
'0:25.328',-0.310
'0:25.331',-0.330
'0:25.333',-0.320
'0:25.336',-0.330
'0:25.339',-0.325
'0:25.342',-0.315
'0:25.344',-0.295
'0:25.347',-0.305
'0:25.350',-0.305
'0:25.353',-0.305
'0:25.356',-0.290
'0:25.358',-0.275
'0:25.361',-0.260
'0:25.364',-0.250
'0:25.367',-0.210
'0:25.369',-0.185
'0:25.372',-0.105
'0:25.375',0.120
'0:25.378',0.560
'0:25.381',1.195
'0:25.383',1.720
'0:25.386',1.895
'0:25.389',1.770
'0:25.392',1.595
'0:25.394',1.490
'0:25.397',1.440
'0:25.400',1.375
'0:25.403',1.275
'0:25.406',1.180
'0:25.408',1.105
'0:25.411',1.025
'0:25.414',0.940
'0:25.417',0.855
'0:25.419',0.770
'0:25.422',0.665
'0:25.425',0.565
'0:25.428',0.465
'0:25.431',0.360
'0:25.433',0.235
'0:25.436',0.115
'0:25.439',-0.030
'0:25.442',-0.170
'0:25.444',-0.345
'0:25.447',-0.525
'0:25.450',-0.705
'0:25.453',-0.870
'0:25.456',-1.005
'0:25.458',-1.135
'0:25.461',-1.265
'0:25.464',-1.380
'0:25.467',-1.470
'0:25.469',-1.530
'0:25.472',-1.585
'0:25.475',-1.635
'0:25.478',-1.660
'0:25.481',-1.720
'0:25.483',-1.795
'0:25.486',-1.880
'0:25.489',-1.965
'0:25.492',-2.025
'0:25.494',-2.080
'0:25.497',-2.155
'0:25.500',-2.240
'0:25.503',-2.310
'0:25.506',-2.315
'0:25.508',-2.260
'0:25.511',-2.140
'0:25.514',-2.015
'0:25.517',-1.905
'0:25.519',-1.795
'0:25.522',-1.655
'0:25.525',-1.515
'0:25.528',-1.395
'0:25.531',-1.330
'0:25.533',-1.280
'0:25.536',-1.240
'0:25.539',-1.180
'0:25.542',-1.130
'0:25.544',-1.095
'0:25.547',-1.070
'0:25.550',-1.020
'0:25.553',-1.010
'0:25.556',-1.010
'0:25.558',-0.995
'0:25.561',-0.970
'0:25.564',-0.920
'0:25.567',-0.850
'0:25.569',-0.790
'0:25.572',-0.755
'0:25.575',-0.680
'0:25.578',-0.620
'0:25.581',-0.570
'0:25.583',-0.535
'0:25.586',-0.470
'0:25.589',-0.400
'0:25.592',-0.320
'0:25.594',-0.240
'0:25.597',-0.170
'0:25.600',-0.120
'0:25.603',-0.060
'0:25.606',-0.005
'0:25.608',0.045
'0:25.611',0.100
'0:25.614',0.130
'0:25.617',0.135
'0:25.619',0.155
'0:25.622',0.145
'0:25.625',0.195
'0:25.628',0.220
'0:25.631',0.235
'0:25.633',0.250
'0:25.636',0.260
'0:25.639',0.265
'0:25.642',0.285
'0:25.644',0.305
'0:25.647',0.330
'0:25.650',0.345
'0:25.653',0.355
'0:25.656',0.365
'0:25.658',0.390
'0:25.661',0.410
'0:25.664',0.430
'0:25.667',0.455
'0:25.669',0.480
'0:25.672',0.495
'0:25.675',0.515
'0:25.678',0.550
'0:25.681',0.560
'0:25.683',0.585
'0:25.686',0.595
'0:25.689',0.605
'0:25.692',0.645
'0:25.694',0.695
'0:25.697',0.710
'0:25.700',0.715
'0:25.703',0.730
'0:25.706',0.750
'0:25.708',0.780
'0:25.711',0.815
'0:25.714',0.835
'0:25.717',0.835
'0:25.719',0.850
'0:25.722',0.850
'0:25.725',0.880
'0:25.728',0.890
'0:25.731',0.900
'0:25.733',0.905
'0:25.736',0.905
'0:25.739',0.900
'0:25.742',0.920
'0:25.744',0.920
'0:25.747',0.920
'0:25.750',0.895
'0:25.753',0.895
'0:25.756',0.885
'0:25.758',0.880
'0:25.761',0.875
'0:25.764',0.870
'0:25.767',0.830
'0:25.769',0.810
'0:25.772',0.785
'0:25.775',0.780
'0:25.778',0.760
'0:25.781',0.735
'0:25.783',0.705
'0:25.786',0.670
'0:25.789',0.640
'0:25.792',0.625
'0:25.794',0.620
'0:25.797',0.595
'0:25.800',0.545
'0:25.803',0.490
'0:25.806',0.460
'0:25.808',0.420
'0:25.811',0.400
'0:25.814',0.355
'0:25.817',0.320
'0:25.819',0.275
'0:25.822',0.240
'0:25.825',0.215
'0:25.828',0.180
'0:25.831',0.135
'0:25.833',0.090
'0:25.836',0.050
'0:25.839',0.030
'0:25.842',0.000
'0:25.844',-0.035
'0:25.847',-0.065
'0:25.850',-0.080
'0:25.853',-0.115
'0:25.856',-0.135
'0:25.858',-0.130
'0:25.861',-0.110
'0:25.864',-0.115
'0:25.867',-0.130
'0:25.869',-0.110
'0:25.872',-0.100
'0:25.875',-0.070
'0:25.878',-0.055
'0:25.881',-0.030
'0:25.883',-0.015
'0:25.886',-0.010
'0:25.889',0.005
'0:25.892',0.005
'0:25.894',0.015
'0:25.897',0.020
'0:25.900',0.030
'0:25.903',0.035
'0:25.906',0.030
'0:25.908',0.015
'0:25.911',0.000
'0:25.914',-0.040
'0:25.917',-0.060
'0:25.919',-0.095
'0:25.922',-0.085
'0:25.925',-0.090
'0:25.928',-0.080
'0:25.931',-0.085
'0:25.933',-0.100
'0:25.936',-0.110
'0:25.939',-0.110
'0:25.942',-0.125
'0:25.944',-0.115
'0:25.947',-0.145
'0:25.950',-0.180
'0:25.953',-0.205
'0:25.956',-0.210
'0:25.958',-0.230
'0:25.961',-0.230
'0:25.964',-0.250
'0:25.967',-0.280
'0:25.969',-0.315
'0:25.972',-0.360
'0:25.975',-0.360
'0:25.978',-0.380
'0:25.981',-0.390
'0:25.983',-0.410
'0:25.986',-0.455
'0:25.989',-0.465
'0:25.992',-0.460
'0:25.994',-0.450
'0:25.997',-0.480
'0:26.000',-0.495
'0:26.003',-0.520
'0:26.006',-0.525
'0:26.008',-0.515
'0:26.011',-0.495
'0:26.014',-0.510
'0:26.017',-0.510
'0:26.019',-0.515
'0:26.022',-0.530
'0:26.025',-0.520
'0:26.028',-0.520
'0:26.031',-0.530
'0:26.033',-0.535
'0:26.036',-0.550
'0:26.039',-0.545
'0:26.042',-0.540
'0:26.044',-0.540
'0:26.047',-0.540
'0:26.050',-0.555
'0:26.053',-0.555
'0:26.056',-0.570
'0:26.058',-0.570
'0:26.061',-0.555
'0:26.064',-0.570
'0:26.067',-0.570
'0:26.069',-0.570
'0:26.072',-0.560
'0:26.075',-0.570
'0:26.078',-0.545
'0:26.081',-0.565
'0:26.083',-0.575
'0:26.086',-0.570
'0:26.089',-0.590
'0:26.092',-0.575
'0:26.094',-0.565
'0:26.097',-0.565
'0:26.100',-0.575
'0:26.103',-0.585
'0:26.106',-0.590
'0:26.108',-0.580
'0:26.111',-0.575
'0:26.114',-0.580
'0:26.117',-0.590
'0:26.119',-0.605
'0:26.122',-0.600
'0:26.125',-0.585
'0:26.128',-0.585
'0:26.131',-0.590
'0:26.133',-0.590
'0:26.136',-0.605
'0:26.139',-0.605
'0:26.142',-0.595
'0:26.144',-0.590
'0:26.147',-0.585
'0:26.150',-0.610
'0:26.153',-0.610
'0:26.156',-0.600
'0:26.158',-0.585
'0:26.161',-0.590
'0:26.164',-0.575
'0:26.167',-0.580
'0:26.169',-0.595
'0:26.172',-0.600
'0:26.175',-0.590
'0:26.178',-0.580
'0:26.181',-0.585
'0:26.183',-0.605
'0:26.186',-0.600
'0:26.189',-0.590
'0:26.192',-0.580
'0:26.194',-0.565
'0:26.197',-0.555
'0:26.200',-0.575
'0:26.203',-0.585
'0:26.206',-0.575
'0:26.208',-0.570
'0:26.211',-0.555
'0:26.214',-0.545
'0:26.217',-0.555
'0:26.219',-0.550
'0:26.222',-0.560
'0:26.225',-0.540
'0:26.228',-0.535
'0:26.231',-0.535
'0:26.233',-0.535
'0:26.236',-0.525
'0:26.239',-0.520
'0:26.242',-0.505
'0:26.244',-0.495
'0:26.247',-0.480
'0:26.250',-0.465
'0:26.253',-0.460
'0:26.256',-0.425
'0:26.258',-0.360
'0:26.261',-0.235
'0:26.264',0.050
'0:26.267',0.560
'0:26.269',1.165
'0:26.272',1.560
'0:26.275',1.620
'0:26.278',1.460
'0:26.281',1.300
'0:26.283',1.215
'0:26.286',1.170
'0:26.289',1.100
'0:26.292',1.025
'0:26.294',0.965
'0:26.297',0.885
'0:26.300',0.815
'0:26.303',0.745
'0:26.306',0.700
'0:26.308',0.645
'0:26.311',0.575
'0:26.314',0.490
'0:26.317',0.390
'0:26.319',0.300
'0:26.322',0.205
'0:26.325',0.100
'0:26.328',-0.005
'0:26.331',-0.155
'0:26.333',-0.300
'0:26.336',-0.455
'0:26.339',-0.605
'0:26.342',-0.770
'0:26.344',-0.920
'0:26.347',-1.065
'0:26.350',-1.235
'0:26.353',-1.380
'0:26.356',-1.500
'0:26.358',-1.550
'0:26.361',-1.585
'0:26.364',-1.635
'0:26.367',-1.665
'0:26.369',-1.695
'0:26.372',-1.755
'0:26.375',-1.830
'0:26.378',-1.900
'0:26.381',-1.990
'0:26.383',-2.065
'0:26.386',-2.135
'0:26.389',-2.220
'0:26.392',-2.295
'0:26.394',-2.330
'0:26.397',-2.315
'0:26.400',-2.245
'0:26.403',-2.150
'0:26.406',-2.030
'0:26.408',-1.895
'0:26.411',-1.705
'0:26.414',-1.565
'0:26.417',-1.465
'0:26.419',-1.400
'0:26.422',-1.355
'0:26.425',-1.295
'0:26.428',-1.245
'0:26.431',-1.205
'0:26.433',-1.175
'0:26.436',-1.140
'0:26.439',-1.110
'0:26.442',-1.085
'0:26.444',-1.075
'0:26.447',-1.085
'0:26.450',-1.070
'0:26.453',-1.050
'0:26.456',-0.995
'0:26.458',-0.935
'0:26.461',-0.855
'0:26.464',-0.800
'0:26.467',-0.765
'0:26.469',-0.730
'0:26.472',-0.675
'0:26.475',-0.590
'0:26.478',-0.520
'0:26.481',-0.435
'0:26.483',-0.365
'0:26.486',-0.300
'0:26.489',-0.250
'0:26.492',-0.210
'0:26.494',-0.145
'0:26.497',-0.100
'0:26.500',-0.075
'0:26.503',-0.055
'0:26.506',-0.045
'0:26.508',-0.020
'0:26.511',0.005
'0:26.514',0.030
'0:26.517',0.040
'0:26.519',0.050
'0:26.522',0.055
'0:26.525',0.080
'0:26.528',0.115
'0:26.531',0.120
'0:26.533',0.135
'0:26.536',0.140
'0:26.539',0.155
'0:26.542',0.180
'0:26.544',0.205
'0:26.547',0.225
'0:26.550',0.235
'0:26.553',0.240
'0:26.556',0.270
'0:26.558',0.295
'0:26.561',0.330
'0:26.564',0.350
'0:26.567',0.360
'0:26.569',0.370
'0:26.572',0.395
'0:26.575',0.420
'0:26.578',0.435
'0:26.581',0.460
'0:26.583',0.480
'0:26.586',0.500
'0:26.589',0.520
'0:26.592',0.550
'0:26.594',0.590
'0:26.597',0.620
'0:26.600',0.635
'0:26.603',0.670
'0:26.606',0.680
'0:26.608',0.715
'0:26.611',0.750
'0:26.614',0.785
'0:26.617',0.825
'0:26.619',0.840
'0:26.622',0.885
'0:26.625',0.910
'0:26.628',0.950
'0:26.631',0.955
'0:26.633',0.960
'0:26.636',0.960
'0:26.639',0.975
'0:26.642',0.990
'0:26.644',1.005
'0:26.647',1.025
'0:26.650',1.010
'0:26.653',0.990
'0:26.656',0.950
'0:26.658',0.910
'0:26.661',0.885
'0:26.664',0.855
'0:26.667',0.840
'0:26.669',0.810
'0:26.672',0.780
'0:26.675',0.760
'0:26.678',0.750
'0:26.681',0.715
'0:26.683',0.670
'0:26.686',0.620
'0:26.689',0.570
'0:26.692',0.540
'0:26.694',0.490
'0:26.697',0.435
'0:26.700',0.375
'0:26.703',0.305
'0:26.706',0.245
'0:26.708',0.195
'0:26.711',0.145
'0:26.714',0.080
'0:26.717',0.000
'0:26.719',-0.050
'0:26.722',-0.105
'0:26.725',-0.150
'0:26.728',-0.180
'0:26.731',-0.220
'0:26.733',-0.275
'0:26.736',-0.315
'0:26.739',-0.355
'0:26.742',-0.395
'0:26.744',-0.425
'0:26.747',-0.440
'0:26.750',-0.465
'0:26.753',-0.475
'0:26.756',-0.505
'0:26.758',-0.515
'0:26.761',-0.520
'0:26.764',-0.530
'0:26.767',-0.550
'0:26.769',-0.570
'0:26.772',-0.575
'0:26.775',-0.565
'0:26.778',-0.555
'0:26.781',-0.570
'0:26.783',-0.575
'0:26.786',-0.590
'0:26.789',-0.600
'0:26.792',-0.605
'0:26.794',-0.595
'0:26.797',-0.595
'0:26.800',-0.605
'0:26.803',-0.620
'0:26.806',-0.635
'0:26.808',-0.620
'0:26.811',-0.610
'0:26.814',-0.620
'0:26.817',-0.630
'0:26.819',-0.650
'0:26.822',-0.655
'0:26.825',-0.655
'0:26.828',-0.640
'0:26.831',-0.640
'0:26.833',-0.650
'0:26.836',-0.655
'0:26.839',-0.655
'0:26.842',-0.645
'0:26.844',-0.630
'0:26.847',-0.645
'0:26.850',-0.660
'0:26.853',-0.665
'0:26.856',-0.665
'0:26.858',-0.650
'0:26.861',-0.650
'0:26.864',-0.665
'0:26.867',-0.660
'0:26.869',-0.665
'0:26.872',-0.665
'0:26.875',-0.670
'0:26.878',-0.645
'0:26.881',-0.650
'0:26.883',-0.660
'0:26.886',-0.660
'0:26.889',-0.660
'0:26.892',-0.645
'0:26.894',-0.650
'0:26.897',-0.650
'0:26.900',-0.660
'0:26.903',-0.655
'0:26.906',-0.655
'0:26.908',-0.650
'0:26.911',-0.630
'0:26.914',-0.635
'0:26.917',-0.650
'0:26.919',-0.640
'0:26.922',-0.645
'0:26.925',-0.640
'0:26.928',-0.625
'0:26.931',-0.625
'0:26.933',-0.640
'0:26.936',-0.650
'0:26.939',-0.640
'0:26.942',-0.635
'0:26.944',-0.620
'0:26.947',-0.635
'0:26.950',-0.630
'0:26.953',-0.630
'0:26.956',-0.625
'0:26.958',-0.620
'0:26.961',-0.600
'0:26.964',-0.605
'0:26.967',-0.610
'0:26.969',-0.630
'0:26.972',-0.610
'0:26.975',-0.590
'0:26.978',-0.585
'0:26.981',-0.575
'0:26.983',-0.605
'0:26.986',-0.600
'0:26.989',-0.610
'0:26.992',-0.610
'0:26.994',-0.595
'0:26.997',-0.595
'0:27.000',-0.605
'0:27.003',-0.610
'0:27.006',-0.600
'0:27.008',-0.600
'0:27.011',-0.585
'0:27.014',-0.590
'0:27.017',-0.600
'0:27.019',-0.595
'0:27.022',-0.570
'0:27.025',-0.560
'0:27.028',-0.560
'0:27.031',-0.560
'0:27.033',-0.560
'0:27.036',-0.565
'0:27.039',-0.565
'0:27.042',-0.560
'0:27.044',-0.545
'0:27.047',-0.550
'0:27.050',-0.555
'0:27.053',-0.560
'0:27.056',-0.555
'0:27.058',-0.535
'0:27.061',-0.525
'0:27.064',-0.525
'0:27.067',-0.525
'0:27.069',-0.540
'0:27.072',-0.555
'0:27.075',-0.525
'0:27.078',-0.515
'0:27.081',-0.500
'0:27.083',-0.530
'0:27.086',-0.515
'0:27.089',-0.500
'0:27.092',-0.495
'0:27.094',-0.485
'0:27.097',-0.490
'0:27.100',-0.485
'0:27.103',-0.490
'0:27.106',-0.490
'0:27.108',-0.470
'0:27.111',-0.445
'0:27.114',-0.450
'0:27.117',-0.465
'0:27.119',-0.490
'0:27.122',-0.500
'0:27.125',-0.470
'0:27.128',-0.455
'0:27.131',-0.445
'0:27.133',-0.430
'0:27.136',-0.410
'0:27.139',-0.385
'0:27.142',-0.340
'0:27.144',-0.255
'0:27.147',-0.060
'0:27.150',0.305
'0:27.153',0.870
'0:27.156',1.410
'0:27.158',1.670
'0:27.161',1.620
'0:27.164',1.440
'0:27.167',1.315
'0:27.169',1.250
'0:27.172',1.195
'0:27.175',1.120
'0:27.178',1.040
'0:27.181',0.935
'0:27.183',0.845
'0:27.186',0.745
'0:27.189',0.645
'0:27.192',0.555
'0:27.194',0.480
'0:27.197',0.365
'0:27.200',0.225
'0:27.203',0.080
'0:27.206',-0.095
'0:27.208',-0.250
'0:27.211',-0.405
'0:27.214',-0.580
'0:27.217',-0.780
'0:27.219',-1.000
'0:27.222',-1.210
'0:27.225',-1.380
'0:27.228',-1.575
'0:27.231',-1.740
'0:27.233',-1.895
'0:27.236',-2.045
'0:27.239',-2.150
'0:27.242',-2.200
'0:27.244',-2.265
'0:27.247',-2.310
'0:27.250',-2.365
'0:27.253',-2.395
'0:27.256',-2.430
'0:27.258',-2.475
'0:27.261',-2.540
'0:27.264',-2.610
'0:27.267',-2.665
'0:27.269',-2.735
'0:27.272',-2.790
'0:27.275',-2.835
'0:27.278',-2.840
'0:27.281',-2.815
'0:27.283',-2.710
'0:27.286',-2.545
'0:27.289',-2.345
'0:27.292',-2.125
'0:27.294',-1.940
'0:27.297',-1.780
'0:27.300',-1.650
'0:27.303',-1.555
'0:27.306',-1.475
'0:27.308',-1.400
'0:27.311',-1.330
'0:27.314',-1.250
'0:27.317',-1.210
'0:27.319',-1.165
'0:27.322',-1.125
'0:27.325',-1.085
'0:27.328',-1.065
'0:27.331',-1.040
'0:27.333',-0.985
'0:27.336',-0.930
'0:27.339',-0.840
'0:27.342',-0.730
'0:27.344',-0.640
'0:27.347',-0.565
'0:27.350',-0.490
'0:27.353',-0.415
'0:27.356',-0.320
'0:27.358',-0.215
'0:27.361',-0.090
'0:27.364',0.020
'0:27.367',0.120
'0:27.369',0.215
'0:27.372',0.305
'0:27.375',0.400
'0:27.378',0.460
'0:27.381',0.500
'0:27.383',0.535
'0:27.386',0.555
'0:27.389',0.590
'0:27.392',0.625
'0:27.394',0.640
'0:27.397',0.655
'0:27.400',0.625
'0:27.403',0.620
'0:27.406',0.625
'0:27.408',0.650
'0:27.411',0.680
'0:27.414',0.685
'0:27.417',0.705
'0:27.419',0.715
'0:27.422',0.735
'0:27.425',0.760
'0:27.428',0.780
'0:27.431',0.785
'0:27.433',0.785
'0:27.436',0.795
'0:27.439',0.800
'0:27.442',0.810
'0:27.444',0.830
'0:27.447',0.855
'0:27.450',0.865
'0:27.453',0.870
'0:27.456',0.870
'0:27.458',0.895
'0:27.461',0.910
'0:27.464',0.925
'0:27.467',0.945
'0:27.469',0.950
'0:27.472',0.975
'0:27.475',1.010
'0:27.478',1.040
'0:27.481',1.055
'0:27.483',1.045
'0:27.486',1.040
'0:27.489',1.040
'0:27.492',1.080
'0:27.494',1.110
'0:27.497',1.115
'0:27.500',1.115
'0:27.503',1.100
'0:27.506',1.100
'0:27.508',1.095
'0:27.511',1.105
'0:27.514',1.095
'0:27.517',1.070
'0:27.519',1.060
'0:27.522',1.030
'0:27.525',1.025
'0:27.528',1.010
'0:27.531',0.990
'0:27.533',0.935
'0:27.536',0.890
'0:27.539',0.855
'0:27.542',0.825
'0:27.544',0.805
'0:27.547',0.760
'0:27.550',0.710
'0:27.553',0.660
'0:27.556',0.620
'0:27.558',0.575
'0:27.561',0.530
'0:27.564',0.485
'0:27.567',0.420
'0:27.569',0.355
'0:27.572',0.310
'0:27.575',0.275
'0:27.578',0.230
'0:27.581',0.185
'0:27.583',0.130
'0:27.586',0.065
'0:27.589',0.030
'0:27.592',-0.010
'0:27.594',-0.045
'0:27.597',-0.075
'0:27.600',-0.120
'0:27.603',-0.170
'0:27.606',-0.210
'0:27.608',-0.235
'0:27.611',-0.250
'0:27.614',-0.285
'0:27.617',-0.325
'0:27.619',-0.370
'0:27.622',-0.400
'0:27.625',-0.420
'0:27.628',-0.420
'0:27.631',-0.425
'0:27.633',-0.455
'0:27.636',-0.480
'0:27.639',-0.490
'0:27.642',-0.490
'0:27.644',-0.480
'0:27.647',-0.495
'0:27.650',-0.510
'0:27.653',-0.525
'0:27.656',-0.540
'0:27.658',-0.530
'0:27.661',-0.525
'0:27.664',-0.525
'0:27.667',-0.535
'0:27.669',-0.555
'0:27.672',-0.545
'0:27.675',-0.535
'0:27.678',-0.540
'0:27.681',-0.540
'0:27.683',-0.555
'0:27.686',-0.555
'0:27.689',-0.560
'0:27.692',-0.540
'0:27.694',-0.535
'0:27.697',-0.540
'0:27.700',-0.540
'0:27.703',-0.555
'0:27.706',-0.555
'0:27.708',-0.540
'0:27.711',-0.540
'0:27.714',-0.540
'0:27.717',-0.555
'0:27.719',-0.565
'0:27.722',-0.550
'0:27.725',-0.535
'0:27.728',-0.525
'0:27.731',-0.520
'0:27.733',-0.515
'0:27.736',-0.520
'0:27.739',-0.515
'0:27.742',-0.495
'0:27.744',-0.485
'0:27.747',-0.495
'0:27.750',-0.505
'0:27.753',-0.515
'0:27.756',-0.505
'0:27.758',-0.500
'0:27.761',-0.485
'0:27.764',-0.470
'0:27.767',-0.475
'0:27.769',-0.485
'0:27.772',-0.485
'0:27.775',-0.475
'0:27.778',-0.455
'0:27.781',-0.455
'0:27.783',-0.470
'0:27.786',-0.480
'0:27.789',-0.490
'0:27.792',-0.470
'0:27.794',-0.470
'0:27.797',-0.475
'0:27.800',-0.480
'0:27.803',-0.475
'0:27.806',-0.475
'0:27.808',-0.470
'0:27.811',-0.480
'0:27.814',-0.485
'0:27.817',-0.495
'0:27.819',-0.510
'0:27.822',-0.505
'0:27.825',-0.495
'0:27.828',-0.480
'0:27.831',-0.490
'0:27.833',-0.495
'0:27.836',-0.490
'0:27.839',-0.495
'0:27.842',-0.490
'0:27.844',-0.495
'0:27.847',-0.495
'0:27.850',-0.505
'0:27.853',-0.510
'0:27.856',-0.510
'0:27.858',-0.490
'0:27.861',-0.485
'0:27.864',-0.490
'0:27.867',-0.500
'0:27.869',-0.510
'0:27.872',-0.490
'0:27.875',-0.495
'0:27.878',-0.505
'0:27.881',-0.505
'0:27.883',-0.505
'0:27.886',-0.495
'0:27.889',-0.505
'0:27.892',-0.495
'0:27.894',-0.490
'0:27.897',-0.485
'0:27.900',-0.490
'0:27.903',-0.490
'0:27.906',-0.495
'0:27.908',-0.480
'0:27.911',-0.480
'0:27.914',-0.475
'0:27.917',-0.480
'0:27.919',-0.485
'0:27.922',-0.500
'0:27.925',-0.475
'0:27.928',-0.480
'0:27.931',-0.475
'0:27.933',-0.485
'0:27.936',-0.495
'0:27.939',-0.480
'0:27.942',-0.470
'0:27.944',-0.470
'0:27.947',-0.475
'0:27.950',-0.465
'0:27.953',-0.480
'0:27.956',-0.475
'0:27.958',-0.470
'0:27.961',-0.455
'0:27.964',-0.460
'0:27.967',-0.450
'0:27.969',-0.455
'0:27.972',-0.445
'0:27.975',-0.445
'0:27.978',-0.440
'0:27.981',-0.435
'0:27.983',-0.435
'0:27.986',-0.445
'0:27.989',-0.425
'0:27.992',-0.415
'0:27.994',-0.380
'0:27.997',-0.365
'0:28.000',-0.330
'0:28.003',-0.285
'0:28.006',-0.130
'0:28.008',0.195
'0:28.011',0.725
'0:28.014',1.335
'0:28.017',1.705
'0:28.019',1.720
'0:28.022',1.525
'0:28.025',1.370
'0:28.028',1.295
'0:28.031',1.245
'0:28.033',1.160
'0:28.036',1.075
'0:28.039',0.990
'0:28.042',0.915
'0:28.044',0.845
'0:28.047',0.770
'0:28.050',0.685
'0:28.053',0.580
'0:28.056',0.475
'0:28.058',0.385
'0:28.061',0.290
'0:28.064',0.160
'0:28.067',0.020
'0:28.069',-0.140
'0:28.072',-0.300
'0:28.075',-0.445
'0:28.078',-0.605
'0:28.081',-0.790
'0:28.083',-0.990
'0:28.086',-1.180
'0:28.089',-1.335
'0:28.092',-1.460
'0:28.094',-1.565
'0:28.097',-1.640
'0:28.100',-1.700
'0:28.103',-1.740
'0:28.106',-1.750
'0:28.108',-1.745
'0:28.111',-1.745
'0:28.114',-1.765
'0:28.117',-1.840
'0:28.119',-1.900
'0:28.122',-1.955
'0:28.125',-1.990
'0:28.128',-2.030
'0:28.131',-2.135
'0:28.133',-2.235
'0:28.136',-2.305
'0:28.139',-2.290
'0:28.142',-2.205
'0:28.144',-2.040
'0:28.147',-1.860
'0:28.150',-1.680
'0:28.153',-1.520
'0:28.156',-1.375
'0:28.158',-1.240
'0:28.161',-1.155
'0:28.164',-1.120
'0:28.167',-1.115
'0:28.169',-1.110
'0:28.172',-1.060
'0:28.175',-1.035
'0:28.178',-1.000
'0:28.181',-0.985
'0:28.183',-1.005
'0:28.186',-1.035
'0:28.189',-1.040
'0:28.192',-1.015
'0:28.194',-0.975
'0:28.197',-0.935
'0:28.200',-0.875
'0:28.203',-0.850
'0:28.206',-0.790
'0:28.208',-0.745
'0:28.211',-0.710
'0:28.214',-0.665
'0:28.217',-0.610
'0:28.219',-0.580
'0:28.222',-0.495
'0:28.225',-0.395
'0:28.228',-0.325
'0:28.231',-0.270
'0:28.233',-0.220
'0:28.236',-0.175
'0:28.239',-0.135
'0:28.242',-0.095
'0:28.244',-0.075
'0:28.247',-0.075
'0:28.250',-0.065
'0:28.253',-0.060
'0:28.256',-0.045
'0:28.258',-0.020
'0:28.261',-0.005
'0:28.264',0.005
'0:28.267',0.025
'0:28.269',0.035
'0:28.272',0.045
'0:28.275',0.065
'0:28.278',0.075
'0:28.281',0.090
'0:28.283',0.105
'0:28.286',0.100
'0:28.289',0.130
'0:28.292',0.150
'0:28.294',0.175
'0:28.297',0.195
'0:28.300',0.195
'0:28.303',0.215
'0:28.306',0.255
'0:28.308',0.275
'0:28.311',0.315
'0:28.314',0.325
'0:28.317',0.350
'0:28.319',0.355
'0:28.322',0.390
'0:28.325',0.420
'0:28.328',0.455
'0:28.331',0.475
'0:28.333',0.480
'0:28.336',0.500
'0:28.339',0.525
'0:28.342',0.555
'0:28.344',0.580
'0:28.347',0.580
'0:28.350',0.575
'0:28.353',0.580
'0:28.356',0.600
'0:28.358',0.610
'0:28.361',0.620
'0:28.364',0.615
'0:28.367',0.605
'0:28.369',0.600
'0:28.372',0.610
'0:28.375',0.620
'0:28.378',0.635
'0:28.381',0.615
'0:28.383',0.600
'0:28.386',0.585
'0:28.389',0.575
'0:28.392',0.575
'0:28.394',0.560
'0:28.397',0.550
'0:28.400',0.535
'0:28.403',0.510
'0:28.406',0.495
'0:28.408',0.475
'0:28.411',0.465
'0:28.414',0.440
'0:28.417',0.405
'0:28.419',0.355
'0:28.422',0.335
'0:28.425',0.305
'0:28.428',0.280
'0:28.431',0.235
'0:28.433',0.190
'0:28.436',0.150
'0:28.439',0.115
'0:28.442',0.090
'0:28.444',0.055
'0:28.447',0.010
'0:28.450',-0.045
'0:28.453',-0.085
'0:28.456',-0.125
'0:28.458',-0.150
'0:28.461',-0.170
'0:28.464',-0.200
'0:28.467',-0.230
'0:28.469',-0.260
'0:28.472',-0.295
'0:28.475',-0.315
'0:28.478',-0.325
'0:28.481',-0.345
'0:28.483',-0.360
'0:28.486',-0.400
'0:28.489',-0.415
'0:28.492',-0.425
'0:28.494',-0.420
'0:28.497',-0.440
'0:28.500',-0.460
'0:28.503',-0.485
'0:28.506',-0.475
'0:28.508',-0.470
'0:28.511',-0.470
'0:28.514',-0.465
'0:28.517',-0.490
'0:28.519',-0.515
'0:28.522',-0.525
'0:28.525',-0.515
'0:28.528',-0.505
'0:28.531',-0.520
'0:28.533',-0.530
'0:28.536',-0.540
'0:28.539',-0.540
'0:28.542',-0.535
'0:28.544',-0.530
'0:28.547',-0.545
'0:28.550',-0.555
'0:28.553',-0.550
'0:28.556',-0.550
'0:28.558',-0.550
'0:28.561',-0.535
'0:28.564',-0.540
'0:28.567',-0.550
'0:28.569',-0.565
'0:28.572',-0.550
'0:28.575',-0.540
'0:28.578',-0.535
'0:28.581',-0.535
'0:28.583',-0.550
'0:28.586',-0.550
'0:28.589',-0.545
'0:28.592',-0.535
'0:28.594',-0.530
'0:28.597',-0.525
'0:28.600',-0.520
'0:28.603',-0.535
'0:28.606',-0.530
'0:28.608',-0.510
'0:28.611',-0.500
'0:28.614',-0.505
'0:28.617',-0.500
'0:28.619',-0.515
'0:28.622',-0.505
'0:28.625',-0.490
'0:28.628',-0.495
'0:28.631',-0.485
'0:28.633',-0.490
'0:28.636',-0.510
'0:28.639',-0.495
'0:28.642',-0.485
'0:28.644',-0.475
'0:28.647',-0.465
'0:28.650',-0.475
'0:28.653',-0.500
'0:28.656',-0.490
'0:28.658',-0.500
'0:28.661',-0.485
'0:28.664',-0.490
'0:28.667',-0.495
'0:28.669',-0.500
'0:28.672',-0.500
'0:28.675',-0.480
'0:28.678',-0.470
'0:28.681',-0.480
'0:28.683',-0.485
'0:28.686',-0.500
'0:28.689',-0.495
'0:28.692',-0.485
'0:28.694',-0.480
'0:28.697',-0.490
'0:28.700',-0.495
'0:28.703',-0.510
'0:28.706',-0.495
'0:28.708',-0.490
'0:28.711',-0.475
'0:28.714',-0.475
'0:28.717',-0.480
'0:28.719',-0.485
'0:28.722',-0.495
'0:28.725',-0.485
'0:28.728',-0.485
'0:28.731',-0.470
'0:28.733',-0.490
'0:28.736',-0.500
'0:28.739',-0.495
'0:28.742',-0.475
'0:28.744',-0.470
'0:28.747',-0.465
'0:28.750',-0.465
'0:28.753',-0.475
'0:28.756',-0.465
'0:28.758',-0.460
'0:28.761',-0.465
'0:28.764',-0.455
'0:28.767',-0.470
'0:28.769',-0.475
'0:28.772',-0.480
'0:28.775',-0.460
'0:28.778',-0.450
'0:28.781',-0.455
'0:28.783',-0.470
'0:28.786',-0.475
'0:28.789',-0.465
'0:28.792',-0.445
'0:28.794',-0.420
'0:28.797',-0.415
'0:28.800',-0.410
'0:28.803',-0.385
'0:28.806',-0.375
'0:28.808',-0.345
'0:28.811',-0.340
'0:28.814',-0.320
'0:28.817',-0.285
'0:28.819',-0.255
'0:28.822',-0.220
'0:28.825',-0.170
'0:28.828',-0.145
'0:28.831',-0.130
'0:28.833',-0.125
'0:28.836',-0.130
'0:28.839',-0.090
'0:28.842',-0.060
'0:28.844',-0.020
'0:28.847',-0.010
'0:28.850',-0.025
'0:28.853',-0.035
'0:28.856',-0.030
'0:28.858',0.040
'0:28.861',0.180
'0:28.864',0.495
'0:28.867',0.970
