'Elapsed time','ECG I'
'hh:mm:ss.mmm','mV'
'0:00.000',-1.170
'0:00.002',-1.200
'0:00.004',-1.230
'0:00.006',-1.195
'0:00.008',-1.220
'0:00.010',-1.205
'0:00.012',-1.200
'0:00.014',-1.190
'0:00.016',-1.190
'0:00.018',-1.205
'0:00.020',-1.210
'0:00.022',-1.200
'0:00.024',-1.205
'0:00.026',-1.200
'0:00.028',-1.210
'0:00.030',-1.185
'0:00.032',-1.195
'0:00.034',-1.240
'0:00.036',-1.185
'0:00.038',-1.190
'0:00.040',-1.200
'0:00.042',-1.175
'0:00.044',-1.185
'0:00.046',-1.185
'0:00.048',-1.195
'0:00.050',-1.180
'0:00.052',-1.195
'0:00.054',-1.170
'0:00.056',-1.175
'0:00.058',-1.195
'0:00.060',-1.220
'0:00.062',-1.200
'0:00.064',-1.205
'0:00.066',-1.205
'0:00.068',-1.190
'0:00.070',-1.200
'0:00.072',-1.205
'0:00.074',-1.210
'0:00.076',-1.190
'0:00.078',-1.190
'0:00.080',-1.175
'0:00.082',-1.195
'0:00.084',-1.165
'0:00.086',-1.160
'0:00.088',-1.200
'0:00.090',-1.190
'0:00.092',-1.180
'0:00.094',-1.200
'0:00.096',-1.195
'0:00.098',-1.175
'0:00.100',-1.175
'0:00.102',-1.180
'0:00.104',-1.180
'0:00.106',-1.190
'0:00.108',-1.185
'0:00.110',-1.185
'0:00.112',-1.165
'0:00.114',-1.180
'0:00.116',-1.195
'0:00.118',-1.185
'0:00.120',-1.185
'0:00.122',-1.180
'0:00.124',-1.210
'0:00.126',-1.185
'0:00.128',-1.200
'0:00.130',-1.205
'0:00.132',-1.195
'0:00.134',-1.185
'0:00.136',-1.180
'0:00.138',-1.175
'0:00.140',-1.180
'0:00.142',-1.165
'0:00.144',-1.150
'0:00.146',-1.165
'0:00.148',-1.160
'0:00.150',-1.200
'0:00.152',-1.170
'0:00.154',-1.185
'0:00.156',-1.185
'0:00.158',-1.200
'0:00.160',-1.210
'0:00.162',-1.180
'0:00.164',-1.160
'0:00.166',-1.185
'0:00.168',-1.185
'0:00.170',-1.180
'0:00.172',-1.185
'0:00.174',-1.190
'0:00.176',-1.195
'0:00.178',-1.195
'0:00.180',-1.190
'0:00.182',-1.190
'0:00.184',-1.195
'0:00.186',-1.170
'0:00.188',-1.160
'0:00.190',-1.175
'0:00.192',-1.185
'0:00.194',-1.180
'0:00.196',-1.215
'0:00.198',-1.200
'0:00.200',-1.195
'0:00.202',-1.165
'0:00.204',-1.160
'0:00.206',-1.165
'0:00.208',-1.185
'0:00.210',-1.170
'0:00.212',-1.145
'0:00.214',-1.190
'0:00.216',-1.185
'0:00.218',-1.190
'0:00.220',-1.180
'0:00.222',-1.185
'0:00.224',-1.165
'0:00.226',-1.160
'0:00.228',-1.155
'0:00.230',-1.175
'0:00.232',-1.170
'0:00.234',-1.155
'0:00.236',-1.160
'0:00.238',-1.140
'0:00.240',-1.165
'0:00.242',-1.160
'0:00.244',-1.150
'0:00.246',-1.145
'0:00.248',-1.135
'0:00.250',-1.125
'0:00.252',-1.115
'0:00.254',-1.120
'0:00.256',-1.105
'0:00.258',-1.110
'0:00.260',-1.100
'0:00.262',-1.110
'0:00.264',-1.090
'0:00.266',-1.115
'0:00.268',-1.105
'0:00.270',-1.110
'0:00.272',-1.135
'0:00.274',-1.095
'0:00.276',-1.090
'0:00.278',-1.130
'0:00.280',-1.130
'0:00.282',-1.155
'0:00.284',-1.170
'0:00.286',-1.170
'0:00.288',-1.165
'0:00.290',-1.175
'0:00.292',-1.160
'0:00.294',-1.170
'0:00.296',-1.185
'0:00.298',-1.205
'0:00.300',-1.135
'0:00.302',-1.140
'0:00.304',-1.180
'0:00.306',-1.190
'0:00.308',-1.195
'0:00.310',-1.180
'0:00.312',-1.195
'0:00.314',-1.180
'0:00.316',-1.180
'0:00.318',-1.170
'0:00.320',-1.175
'0:00.322',-1.180
'0:00.324',-1.200
'0:00.326',-1.180
'0:00.328',-1.180
'0:00.330',-1.180
'0:00.332',-1.195
'0:00.334',-1.155
'0:00.336',-1.160
'0:00.338',-1.175
'0:00.340',-1.180
'0:00.342',-1.175
'0:00.344',-1.170
'0:00.346',-1.195
'0:00.348',-1.195
'0:00.350',-1.210
'0:00.352',-1.185
'0:00.354',-1.185
'0:00.356',-1.205
'0:00.358',-1.190
'0:00.360',-1.195
'0:00.362',-1.220
'0:00.364',-1.245
'0:00.366',-1.250
'0:00.368',-1.280
'0:00.370',-1.315
'0:00.372',-1.355
'0:00.374',-1.385
'0:00.376',-1.380
'0:00.378',-1.365
'0:00.380',-1.315
'0:00.382',-1.225
'0:00.384',-1.125
'0:00.386',-0.975
'0:00.388',-0.825
'0:00.390',-0.710
'0:00.392',-0.555
'0:00.394',-0.450
'0:00.396',-0.290
'0:00.398',-0.170
'0:00.400',-0.110
'0:00.402',-0.165
'0:00.404',-0.240
'0:00.406',-0.285
'0:00.408',-0.380
'0:00.410',-0.435
'0:00.412',-0.510
'0:00.414',-0.695
'0:00.416',-0.815
'0:00.418',-0.865
'0:00.420',-0.925
'0:00.422',-0.945
'0:00.424',-0.985
'0:00.426',-1.015
'0:00.428',-1.015
'0:00.430',-1.090
'0:00.432',-1.100
'0:00.434',-1.120
'0:00.436',-1.135
'0:00.438',-1.125
'0:00.440',-1.120
'0:00.442',-1.140
'0:00.444',-1.130
'0:00.446',-1.155
'0:00.448',-1.150
'0:00.450',-1.150
'0:00.452',-1.165
'0:00.454',-1.160
'0:00.456',-1.175
'0:00.458',-1.150
'0:00.460',-1.140
'0:00.462',-1.175
'0:00.464',-1.155
'0:00.466',-1.180
'0:00.468',-1.160
'0:00.470',-1.155
'0:00.472',-1.165
'0:00.474',-1.175
'0:00.476',-1.185
'0:00.478',-1.170
'0:00.480',-1.145
'0:00.482',-1.150
'0:00.484',-1.175
'0:00.486',-1.190
'0:00.488',-1.155
'0:00.490',-1.170
'0:00.492',-1.175
'0:00.494',-1.155
'0:00.496',-1.170
'0:00.498',-1.185
'0:00.500',-1.145
'0:00.502',-1.150
'0:00.504',-1.160
'0:00.506',-1.155
'0:00.508',-1.155
'0:00.510',-1.150
'0:00.512',-1.160
'0:00.514',-1.165
'0:00.516',-1.135
'0:00.518',-1.130
'0:00.520',-1.160
'0:00.522',-1.150
'0:00.524',-1.155
'0:00.526',-1.155
'0:00.528',-1.155
'0:00.530',-1.150
'0:00.532',-1.140
'0:00.534',-1.130
'0:00.536',-1.135
'0:00.538',-1.135
'0:00.540',-1.150
'0:00.542',-1.150
'0:00.544',-1.130
'0:00.546',-1.145
'0:00.548',-1.120
'0:00.550',-1.140
'0:00.552',-1.140
'0:00.554',-1.140
'0:00.556',-1.130
'0:00.558',-1.125
'0:00.560',-1.135
'0:00.562',-1.115
'0:00.564',-1.120
'0:00.566',-1.115
'0:00.568',-1.115
'0:00.570',-1.120
'0:00.572',-1.110
'0:00.574',-1.115
'0:00.576',-1.090
'0:00.578',-1.105
'0:00.580',-1.085
'0:00.582',-1.080
'0:00.584',-1.100
'0:00.586',-1.070
'0:00.588',-1.075
'0:00.590',-1.085
'0:00.592',-1.060
'0:00.594',-1.090
'0:00.596',-1.060
'0:00.598',-1.055
'0:00.600',-1.050
'0:00.602',-1.065
'0:00.604',-1.035
'0:00.606',-1.045
'0:00.608',-1.045
'0:00.610',-1.040
'0:00.612',-1.030
'0:00.614',-1.010
'0:00.616',-1.015
'0:00.618',-0.980
'0:00.620',-0.970
'0:00.622',-1.005
'0:00.624',-0.995
'0:00.626',-1.005
'0:00.628',-1.000
'0:00.630',-1.000
'0:00.632',-0.985
'0:00.634',-0.970
'0:00.636',-0.985
'0:00.638',-1.005
'0:00.640',-0.985
'0:00.642',-0.940
'0:00.644',-0.945
'0:00.646',-1.005
'0:00.648',-0.980
'0:00.650',-0.965
'0:00.652',-0.975
'0:00.654',-0.980
'0:00.656',-0.980
'0:00.658',-0.975
'0:00.660',-0.980
'0:00.662',-1.015
'0:00.664',-1.020
'0:00.666',-1.020
'0:00.668',-1.020
'0:00.670',-1.025
'0:00.672',-1.035
'0:00.674',-1.025
'0:00.676',-1.015
'0:00.678',-1.045
'0:00.680',-1.070
'0:00.682',-1.055
'0:00.684',-1.055
'0:00.686',-1.060
'0:00.688',-1.070
'0:00.690',-1.090
'0:00.692',-1.140
'0:00.694',-1.085
'0:00.696',-1.095
'0:00.698',-1.100
'0:00.700',-1.105
'0:00.702',-1.085
'0:00.704',-1.055
'0:00.706',-1.065
'0:00.708',-1.130
'0:00.710',-1.125
'0:00.712',-1.125
'0:00.714',-1.120
'0:00.716',-1.115
'0:00.718',-1.085
'0:00.720',-1.120
'0:00.722',-1.145
'0:00.724',-1.130
'0:00.726',-1.135
'0:00.728',-1.120
'0:00.730',-1.120
'0:00.732',-1.115
'0:00.734',-1.115
'0:00.736',-1.100
'0:00.738',-1.130
'0:00.740',-1.095
'0:00.742',-1.120
'0:00.744',-1.135
'0:00.746',-1.100
'0:00.748',-1.115
'0:00.750',-1.105
'0:00.752',-1.135
'0:00.754',-1.100
'0:00.756',-1.135
'0:00.758',-1.115
'0:00.760',-1.125
'0:00.762',-1.110
'0:00.764',-1.115
'0:00.766',-1.130
'0:00.768',-1.115
'0:00.770',-1.100
'0:00.772',-1.120
'0:00.774',-1.115
'0:00.776',-1.130
'0:00.778',-1.140
'0:00.780',-1.130
'0:00.782',-1.130
'0:00.784',-1.140
'0:00.786',-1.090
'0:00.788',-1.095
'0:00.790',-1.110
'0:00.792',-1.120
'0:00.794',-1.115
'0:00.796',-1.130
'0:00.798',-1.115
'0:00.800',-1.105
'0:00.802',-1.105
'0:00.804',-1.105
'0:00.806',-1.105
'0:00.808',-1.130
'0:00.810',-1.135
'0:00.812',-1.150
'0:00.814',-1.090
'0:00.816',-1.095
'0:00.818',-1.105
'0:00.820',-1.120
'0:00.822',-1.090
'0:00.824',-1.115
'0:00.826',-1.110
'0:00.828',-1.115
'0:00.830',-1.130
'0:00.832',-1.135
'0:00.834',-1.120
'0:00.836',-1.105
'0:00.838',-1.125
'0:00.840',-1.115
'0:00.842',-1.075
'0:00.844',-1.090
'0:00.846',-1.095
'0:00.848',-1.115
'0:00.850',-1.105
'0:00.852',-1.120
'0:00.854',-1.095
'0:00.856',-1.105
'0:00.858',-1.105
'0:00.860',-1.110
'0:00.862',-1.115
'0:00.864',-1.105
'0:00.866',-1.110
'0:00.868',-1.125
'0:00.870',-1.120
'0:00.872',-1.105
'0:00.874',-1.100
'0:00.876',-1.105
'0:00.878',-1.100
'0:00.880',-1.125
'0:00.882',-1.115
'0:00.884',-1.105
'0:00.886',-1.100
'0:00.888',-1.100
'0:00.890',-1.085
'0:00.892',-1.115
'0:00.894',-1.105
'0:00.896',-1.110
'0:00.898',-1.100
'0:00.900',-1.105
'0:00.902',-1.120
'0:00.904',-1.115
'0:00.906',-1.085
'0:00.908',-1.100
'0:00.910',-1.100
'0:00.912',-1.105
'0:00.914',-1.095
'0:00.916',-1.090
'0:00.918',-1.115
'0:00.920',-1.090
'0:00.922',-1.115
'0:00.924',-1.115
'0:00.926',-1.105
'0:00.928',-1.105
'0:00.930',-1.110
'0:00.932',-1.110
'0:00.934',-1.085
'0:00.936',-1.145
'0:00.938',-1.115
'0:00.940',-1.125
'0:00.942',-1.120
'0:00.944',-1.135
'0:00.946',-1.095
'0:00.948',-1.100
'0:00.950',-1.105
'0:00.952',-1.090
'0:00.954',-1.095
'0:00.956',-1.095
'0:00.958',-1.115
'0:00.960',-1.120
'0:00.962',-1.120
'0:00.964',-1.105
'0:00.966',-1.100
'0:00.968',-1.110
'0:00.970',-1.115
'0:00.972',-1.100
'0:00.974',-1.100
'0:00.976',-1.085
'0:00.978',-1.105
'0:00.980',-1.100
'0:00.982',-1.090
'0:00.984',-1.110
'0:00.986',-1.100
'0:00.988',-1.130
'0:00.990',-1.120
'0:00.992',-1.110
'0:00.994',-1.110
'0:00.996',-1.100
'0:00.998',-1.095
'0:01.000',-1.110
'0:01.002',-1.095
'0:01.004',-1.090
'0:01.006',-1.085
'0:01.008',-1.090
'0:01.010',-1.080
'0:01.012',-1.090
'0:01.014',-1.080
'0:01.016',-1.085
'0:01.018',-1.090
'0:01.020',-1.065
'0:01.022',-1.085
'0:01.024',-1.085
'0:01.026',-1.055
'0:01.028',-1.075
'0:01.030',-1.060
'0:01.032',-1.095
'0:01.034',-1.090
'0:01.036',-1.060
'0:01.038',-1.035
'0:01.040',-1.025
'0:01.042',-1.055
'0:01.044',-1.045
'0:01.046',-1.030
'0:01.048',-1.015
'0:01.050',-1.020
'0:01.052',-1.040
'0:01.054',-1.015
'0:01.056',-1.020
'0:01.058',-1.010
'0:01.060',-1.025
'0:01.062',-1.045
'0:01.064',-1.020
'0:01.066',-1.060
'0:01.068',-1.085
'0:01.070',-1.085
'0:01.072',-1.095
'0:01.074',-1.100
'0:01.076',-1.080
'0:01.078',-1.080
'0:01.080',-1.080
'0:01.082',-1.080
'0:01.084',-1.080
'0:01.086',-1.085
'0:01.088',-1.085
'0:01.090',-1.100
'0:01.092',-1.070
'0:01.094',-1.105
'0:01.096',-1.125
'0:01.098',-1.115
'0:01.100',-1.080
'0:01.102',-1.095
'0:01.104',-1.110
'0:01.106',-1.100
'0:01.108',-1.100
'0:01.110',-1.090
'0:01.112',-1.080
'0:01.114',-1.110
'0:01.116',-1.105
'0:01.118',-1.080
'0:01.120',-1.095
'0:01.122',-1.120
'0:01.124',-1.105
'0:01.126',-1.115
'0:01.128',-1.105
'0:01.130',-1.130
'0:01.132',-1.135
'0:01.134',-1.125
'0:01.136',-1.100
'0:01.138',-1.115
'0:01.140',-1.105
'0:01.142',-1.100
'0:01.144',-1.105
'0:01.146',-1.110
'0:01.148',-1.115
'0:01.150',-1.145
'0:01.152',-1.125
'0:01.154',-1.175
'0:01.156',-1.160
'0:01.158',-1.230
'0:01.160',-1.270
'0:01.162',-1.290
'0:01.164',-1.325
'0:01.166',-1.325
'0:01.168',-1.305
'0:01.170',-1.250
'0:01.172',-1.150
'0:01.174',-1.015
'0:01.176',-0.880
'0:01.178',-0.740
'0:01.180',-0.585
'0:01.182',-0.445
'0:01.184',-0.335
'0:01.186',-0.210
'0:01.188',-0.110
'0:01.190',-0.085
'0:01.192',-0.105
'0:01.194',-0.160
'0:01.196',-0.235
'0:01.198',-0.330
'0:01.200',-0.375
'0:01.202',-0.465
'0:01.204',-0.635
'0:01.206',-0.745
'0:01.208',-0.800
'0:01.210',-0.865
'0:01.212',-0.880
'0:01.214',-0.905
'0:01.216',-0.950
'0:01.218',-0.980
'0:01.220',-0.995
'0:01.222',-1.025
'0:01.224',-1.065
'0:01.226',-1.090
'0:01.228',-1.075
'0:01.230',-1.085
'0:01.232',-1.090
'0:01.234',-1.075
'0:01.236',-1.070
'0:01.238',-1.065
'0:01.240',-1.090
'0:01.242',-1.100
'0:01.244',-1.110
'0:01.246',-1.095
'0:01.248',-1.115
'0:01.250',-1.110
'0:01.252',-1.110
'0:01.254',-1.125
'0:01.256',-1.110
'0:01.258',-1.070
'0:01.260',-1.100
'0:01.262',-1.125
'0:01.264',-1.105
'0:01.266',-1.110
'0:01.268',-1.100
'0:01.270',-1.085
'0:01.272',-1.105
'0:01.274',-1.105
'0:01.276',-1.100
'0:01.278',-1.105
'0:01.280',-1.125
'0:01.282',-1.105
'0:01.284',-1.110
'0:01.286',-1.110
'0:01.288',-1.110
'0:01.290',-1.110
'0:01.292',-1.095
'0:01.294',-1.115
'0:01.296',-1.110
'0:01.298',-1.080
'0:01.300',-1.110
'0:01.302',-1.100
'0:01.304',-1.120
'0:01.306',-1.080
'0:01.308',-1.090
'0:01.310',-1.100
'0:01.312',-1.115
'0:01.314',-1.090
'0:01.316',-1.085
'0:01.318',-1.090
'0:01.320',-1.075
'0:01.322',-1.070
'0:01.324',-1.090
'0:01.326',-1.100
'0:01.328',-1.085
'0:01.330',-1.085
'0:01.332',-1.125
'0:01.334',-1.110
'0:01.336',-1.085
'0:01.338',-1.095
'0:01.340',-1.090
'0:01.342',-1.040
'0:01.344',-1.075
'0:01.346',-1.065
'0:01.348',-1.075
'0:01.350',-1.085
'0:01.352',-1.050
'0:01.354',-1.060
'0:01.356',-1.060
'0:01.358',-1.065
'0:01.360',-1.090
'0:01.362',-1.055
'0:01.364',-1.075
'0:01.366',-1.045
'0:01.368',-1.025
'0:01.370',-1.015
'0:01.372',-1.050
'0:01.374',-1.045
'0:01.376',-1.030
'0:01.378',-1.015
'0:01.380',-1.035
'0:01.382',-1.030
'0:01.384',-1.025
'0:01.386',-0.995
'0:01.388',-0.990
'0:01.390',-0.990
'0:01.392',-1.010
'0:01.394',-1.015
'0:01.396',-0.995
'0:01.398',-0.965
'0:01.400',-0.995
'0:01.402',-0.995
'0:01.404',-0.960
'0:01.406',-0.975
'0:01.408',-0.990
'0:01.410',-0.955
'0:01.412',-0.940
'0:01.414',-0.925
'0:01.416',-0.925
'0:01.418',-0.930
'0:01.420',-0.910
'0:01.422',-0.950
'0:01.424',-0.925
'0:01.426',-0.945
'0:01.428',-0.935
'0:01.430',-0.935
'0:01.432',-0.930
'0:01.434',-0.935
'0:01.436',-0.940
'0:01.438',-0.885
'0:01.440',-0.915
'0:01.442',-0.935
'0:01.444',-0.950
'0:01.446',-0.955
'0:01.448',-0.950
'0:01.450',-0.970
'0:01.452',-0.965
'0:01.454',-0.975
'0:01.456',-0.990
'0:01.458',-0.950
'0:01.460',-0.945
'0:01.462',-0.960
'0:01.464',-0.980
'0:01.466',-0.980
'0:01.468',-0.995
'0:01.470',-0.995
'0:01.472',-1.010
'0:01.474',-0.995
'0:01.476',-1.010
'0:01.478',-1.030
'0:01.480',-1.030
'0:01.482',-1.020
'0:01.484',-1.050
'0:01.486',-1.060
'0:01.488',-1.045
'0:01.490',-1.040
'0:01.492',-1.035
'0:01.494',-1.055
'0:01.496',-1.055
'0:01.498',-1.035
'0:01.500',-1.060
'0:01.502',-1.055
'0:01.504',-1.065
'0:01.506',-1.070
'0:01.508',-1.065
'0:01.510',-1.045
'0:01.512',-1.065
'0:01.514',-1.070
'0:01.516',-1.085
'0:01.518',-1.085
'0:01.520',-1.080
'0:01.522',-1.080
'0:01.524',-1.075
'0:01.526',-1.075
'0:01.528',-1.085
'0:01.530',-1.055
'0:01.532',-1.075
'0:01.534',-1.080
'0:01.536',-1.070
'0:01.538',-1.060
'0:01.540',-1.075
'0:01.542',-1.050
'0:01.544',-1.050
'0:01.546',-1.075
'0:01.548',-1.085
'0:01.550',-1.075
'0:01.552',-1.070
'0:01.554',-1.070
'0:01.556',-1.075
'0:01.558',-1.080
'0:01.560',-1.065
'0:01.562',-1.040
'0:01.564',-1.055
'0:01.566',-1.075
'0:01.568',-1.090
'0:01.570',-1.040
'0:01.572',-1.060
'0:01.574',-1.070
'0:01.576',-1.060
'0:01.578',-1.065
'0:01.580',-1.080
'0:01.582',-1.080
'0:01.584',-1.085
'0:01.586',-1.075
'0:01.588',-1.080
'0:01.590',-1.080
'0:01.592',-1.070
'0:01.594',-1.070
'0:01.596',-1.060
'0:01.598',-1.075
'0:01.600',-1.075
'0:01.602',-1.060
'0:01.604',-1.095
'0:01.606',-1.095
'0:01.608',-1.065
'0:01.610',-1.055
'0:01.612',-1.090
'0:01.614',-1.075
'0:01.616',-1.065
'0:01.618',-1.080
'0:01.620',-1.070
'0:01.622',-1.070
'0:01.624',-1.045
'0:01.626',-1.050
'0:01.628',-1.075
'0:01.630',-1.075
'0:01.632',-1.055
'0:01.634',-1.060
'0:01.636',-1.050
'0:01.638',-1.065
'0:01.640',-1.060
'0:01.642',-1.070
'0:01.644',-1.070
'0:01.646',-1.075
'0:01.648',-1.060
'0:01.650',-1.070
'0:01.652',-1.080
'0:01.654',-1.055
'0:01.656',-1.060
'0:01.658',-1.075
'0:01.660',-1.070
'0:01.662',-1.070
'0:01.664',-1.075
'0:01.666',-1.055
'0:01.668',-1.085
'0:01.670',-1.090
'0:01.672',-1.065
'0:01.674',-1.080
'0:01.676',-1.075
'0:01.678',-1.060
'0:01.680',-1.065
'0:01.682',-1.045
'0:01.684',-1.050
'0:01.686',-1.060
'0:01.688',-1.060
'0:01.690',-1.070
'0:01.692',-1.065
'0:01.694',-1.055
'0:01.696',-1.060
'0:01.698',-1.070
'0:01.700',-1.065
'0:01.702',-1.060
'0:01.704',-1.065
'0:01.706',-1.070
'0:01.708',-1.080
'0:01.710',-1.085
'0:01.712',-1.065
'0:01.714',-1.060
'0:01.716',-1.070
'0:01.718',-1.070
'0:01.720',-1.070
'0:01.722',-1.105
'0:01.724',-1.050
'0:01.726',-1.075
'0:01.728',-1.085
'0:01.730',-1.085
'0:01.732',-1.065
'0:01.734',-1.075
'0:01.736',-1.075
'0:01.738',-1.070
'0:01.740',-1.075
'0:01.742',-1.070
'0:01.744',-1.075
'0:01.746',-1.060
'0:01.748',-1.085
'0:01.750',-1.070
'0:01.752',-1.055
'0:01.754',-1.045
'0:01.756',-1.040
'0:01.758',-1.060
'0:01.760',-1.070
'0:01.762',-1.065
'0:01.764',-1.065
'0:01.766',-1.095
'0:01.768',-1.065
'0:01.770',-1.070
'0:01.772',-1.090
'0:01.774',-1.070
'0:01.776',-1.060
'0:01.778',-1.065
'0:01.780',-1.070
'0:01.782',-1.080
'0:01.784',-1.085
'0:01.786',-1.070
'0:01.788',-1.060
'0:01.790',-1.060
'0:01.792',-1.090
'0:01.794',-1.090
'0:01.796',-1.090
'0:01.798',-1.080
'0:01.800',-1.070
'0:01.802',-1.065
'0:01.804',-1.070
'0:01.806',-1.070
'0:01.808',-1.075
'0:01.810',-1.080
'0:01.812',-1.080
'0:01.814',-1.055
'0:01.816',-1.050
'0:01.818',-1.085
'0:01.820',-1.075
'0:01.822',-1.080
'0:01.824',-1.055
'0:01.826',-1.065
'0:01.828',-1.060
'0:01.830',-1.060
'0:01.832',-1.075
'0:01.834',-1.085
'0:01.836',-1.085
'0:01.838',-1.075
'0:01.840',-1.045
'0:01.842',-1.055
'0:01.844',-1.065
'0:01.846',-1.045
'0:01.848',-1.070
'0:01.850',-1.070
'0:01.852',-1.045
'0:01.854',-1.045
'0:01.856',-1.025
'0:01.858',-1.035
'0:01.860',-1.035
'0:01.862',-1.045
'0:01.864',-1.030
'0:01.866',-1.025
'0:01.868',-1.025
'0:01.870',-1.010
'0:01.872',-1.005
'0:01.874',-1.000
'0:01.876',-1.000
'0:01.878',-0.980
'0:01.880',-0.995
'0:01.882',-1.000
'0:01.884',-0.995
'0:01.886',-0.995
'0:01.888',-0.985
'0:01.890',-0.995
'0:01.892',-1.020
'0:01.894',-1.030
'0:01.896',-1.030
'0:01.898',-1.030
'0:01.900',-1.040
'0:01.902',-1.050
'0:01.904',-1.075
'0:01.906',-1.070
'0:01.908',-1.075
'0:01.910',-1.080
'0:01.912',-1.050
'0:01.914',-1.045
'0:01.916',-1.055
'0:01.918',-1.065
'0:01.920',-1.075
'0:01.922',-1.080
'0:01.924',-1.070
'0:01.926',-1.060
'0:01.928',-1.065
'0:01.930',-1.065
'0:01.932',-1.070
'0:01.934',-1.080
'0:01.936',-1.070
'0:01.938',-1.070
'0:01.940',-1.090
'0:01.942',-1.095
'0:01.944',-1.085
'0:01.946',-1.080
'0:01.948',-1.095
'0:01.950',-1.090
'0:01.952',-1.065
'0:01.954',-1.085
'0:01.956',-1.100
'0:01.958',-1.095
'0:01.960',-1.105
'0:01.962',-1.090
'0:01.964',-1.095
'0:01.966',-1.090
'0:01.968',-1.085
'0:01.970',-1.105
'0:01.972',-1.085
'0:01.974',-1.105
'0:01.976',-1.100
'0:01.978',-1.090
'0:01.980',-1.105
'0:01.982',-1.135
'0:01.984',-1.160
'0:01.986',-1.185
'0:01.988',-1.210
'0:01.990',-1.240
'0:01.992',-1.270
'0:01.994',-1.300
'0:01.996',-1.295
'0:01.998',-1.295
'0:02.000',-1.210
'0:02.002',-1.115
'0:02.004',-1.020
'0:02.006',-0.865
'0:02.008',-0.685
'0:02.010',-0.535
'0:02.012',-0.380
'0:02.014',-0.240
'0:02.016',-0.085
'0:02.018',0.005
'0:02.020',0.020
'0:02.022',-0.035
'0:02.024',-0.100
'0:02.026',-0.130
'0:02.028',-0.245
'0:02.030',-0.295
'0:02.032',-0.400
'0:02.034',-0.545
'0:02.036',-0.690
'0:02.038',-0.765
'0:02.040',-0.805
'0:02.042',-0.850
'0:02.044',-0.900
'0:02.046',-0.925
'0:02.048',-0.970
'0:02.050',-0.970
'0:02.052',-1.010
'0:02.054',-1.045
'0:02.056',-1.045
'0:02.058',-1.070
'0:02.060',-1.060
'0:02.062',-1.055
'0:02.064',-1.080
'0:02.066',-1.095
'0:02.068',-1.075
'0:02.070',-1.095
'0:02.072',-1.085
'0:02.074',-1.085
'0:02.076',-1.075
'0:02.078',-1.075
'0:02.080',-1.090
'0:02.082',-1.095
'0:02.084',-1.090
'0:02.086',-1.110
'0:02.088',-1.095
'0:02.090',-1.105
'0:02.092',-1.110
'0:02.094',-1.100
'0:02.096',-1.070
'0:02.098',-1.105
'0:02.100',-1.115
'0:02.102',-1.105
'0:02.104',-1.100
'0:02.106',-1.110
'0:02.108',-1.100
'0:02.110',-1.105
'0:02.112',-1.100
'0:02.114',-1.100
'0:02.116',-1.110
'0:02.118',-1.105
'0:02.120',-1.115
'0:02.122',-1.095
'0:02.124',-1.110
'0:02.126',-1.100
'0:02.128',-1.110
'0:02.130',-1.090
'0:02.132',-1.085
'0:02.134',-1.085
'0:02.136',-1.105
'0:02.138',-1.085
'0:02.140',-1.095
'0:02.142',-1.090
'0:02.144',-1.110
'0:02.146',-1.100
'0:02.148',-1.095
'0:02.150',-1.080
'0:02.152',-1.085
'0:02.154',-1.080
'0:02.156',-1.085
'0:02.158',-1.065
'0:02.160',-1.080
'0:02.162',-1.095
'0:02.164',-1.090
'0:02.166',-1.070
'0:02.168',-1.080
'0:02.170',-1.075
'0:02.172',-1.080
'0:02.174',-1.085
'0:02.176',-1.095
'0:02.178',-1.070
'0:02.180',-1.080
'0:02.182',-1.090
'0:02.184',-1.090
'0:02.186',-1.075
'0:02.188',-1.065
'0:02.190',-1.060
'0:02.192',-1.030
'0:02.194',-1.060
'0:02.196',-1.060
'0:02.198',-1.055
'0:02.200',-1.050
'0:02.202',-1.050
'0:02.204',-1.065
'0:02.206',-1.030
'0:02.208',-1.035
'0:02.210',-1.020
'0:02.212',-1.005
'0:02.214',-1.015
'0:02.216',-1.050
'0:02.218',-1.005
'0:02.220',-1.015
'0:02.222',-1.015
'0:02.224',-0.980
'0:02.226',-0.990
'0:02.228',-0.980
'0:02.230',-0.980
'0:02.232',-0.980
'0:02.234',-0.980
'0:02.236',-0.990
'0:02.238',-0.955
'0:02.240',-0.930
'0:02.242',-0.935
'0:02.244',-0.935
'0:02.246',-0.935
'0:02.248',-0.930
'0:02.250',-0.925
'0:02.252',-0.930
'0:02.254',-0.915
'0:02.256',-0.940
'0:02.258',-0.925
'0:02.260',-0.915
'0:02.262',-0.920
'0:02.264',-0.910
'0:02.266',-0.905
'0:02.268',-0.920
'0:02.270',-0.905
'0:02.272',-0.915
'0:02.274',-0.925
'0:02.276',-0.925
'0:02.278',-0.920
'0:02.280',-0.930
'0:02.282',-0.940
'0:02.284',-0.945
'0:02.286',-0.945
'0:02.288',-0.965
'0:02.290',-0.965
'0:02.292',-0.960
'0:02.294',-0.970
'0:02.296',-0.985
'0:02.298',-1.015
'0:02.300',-0.985
'0:02.302',-0.990
'0:02.304',-1.000
'0:02.306',-1.000
'0:02.308',-1.020
'0:02.310',-1.005
'0:02.312',-1.035
'0:02.314',-1.025
'0:02.316',-1.040
'0:02.318',-1.030
'0:02.320',-1.020
'0:02.322',-1.055
'0:02.324',-1.095
'0:02.326',-1.070
'0:02.328',-1.025
'0:02.330',-1.035
'0:02.332',-1.010
'0:02.334',-1.030
'0:02.336',-1.065
'0:02.338',-1.055
'0:02.340',-1.080
'0:02.342',-1.080
'0:02.344',-1.060
'0:02.346',-1.055
'0:02.348',-1.055
'0:02.350',-1.065
'0:02.352',-1.060
'0:02.354',-1.040
'0:02.356',-1.050
'0:02.358',-1.075
'0:02.360',-1.055
'0:02.362',-1.065
'0:02.364',-1.065
'0:02.366',-1.055
'0:02.368',-1.070
'0:02.370',-1.055
'0:02.372',-1.045
'0:02.374',-1.060
'0:02.376',-1.060
'0:02.378',-1.055
'0:02.380',-1.060
'0:02.382',-1.040
'0:02.384',-1.040
'0:02.386',-1.055
'0:02.388',-1.055
'0:02.390',-1.055
'0:02.392',-1.065
'0:02.394',-1.045
'0:02.396',-1.055
'0:02.398',-1.045
'0:02.400',-1.045
'0:02.402',-1.065
'0:02.404',-1.070
'0:02.406',-1.050
'0:02.408',-1.055
'0:02.410',-1.015
'0:02.412',-1.030
'0:02.414',-1.050
'0:02.416',-1.035
'0:02.418',-1.065
'0:02.420',-1.060
'0:02.422',-1.060
'0:02.424',-1.035
'0:02.426',-1.045
'0:02.428',-1.030
'0:02.430',-1.040
'0:02.432',-1.050
'0:02.434',-1.060
'0:02.436',-1.060
'0:02.438',-1.040
'0:02.440',-1.030
'0:02.442',-1.035
'0:02.444',-1.045
'0:02.446',-1.025
'0:02.448',-1.050
'0:02.450',-1.030
'0:02.452',-1.055
'0:02.454',-1.040
'0:02.456',-1.040
'0:02.458',-1.040
'0:02.460',-1.050
'0:02.462',-1.035
'0:02.464',-1.030
'0:02.466',-1.030
'0:02.468',-1.040
'0:02.470',-1.035
'0:02.472',-1.035
'0:02.474',-1.040
'0:02.476',-1.045
'0:02.478',-1.045
'0:02.480',-1.050
'0:02.482',-1.025
'0:02.484',-1.030
'0:02.486',-1.020
'0:02.488',-1.035
'0:02.490',-1.060
'0:02.492',-1.035
'0:02.494',-1.035
'0:02.496',-1.035
'0:02.498',-1.045
'0:02.500',-1.040
'0:02.502',-1.050
'0:02.504',-1.050
'0:02.506',-1.035
'0:02.508',-1.040
'0:02.510',-1.045
'0:02.512',-1.030
'0:02.514',-1.045
'0:02.516',-1.050
'0:02.518',-1.050
'0:02.520',-1.045
'0:02.522',-1.020
'0:02.524',-1.025
'0:02.526',-1.030
'0:02.528',-1.025
'0:02.530',-1.040
'0:02.532',-1.025
'0:02.534',-1.025
'0:02.536',-1.025
'0:02.538',-1.015
'0:02.540',-1.050
'0:02.542',-1.065
'0:02.544',-1.045
'0:02.546',-1.040
'0:02.548',-1.045
'0:02.550',-1.025
'0:02.552',-1.050
'0:02.554',-1.045
'0:02.556',-1.050
'0:02.558',-1.020
'0:02.560',-1.035
'0:02.562',-1.040
'0:02.564',-1.060
'0:02.566',-1.040
'0:02.568',-1.020
'0:02.570',-1.015
'0:02.572',-1.020
'0:02.574',-1.055
'0:02.576',-1.040
'0:02.578',-1.030
'0:02.580',-1.050
'0:02.582',-1.050
'0:02.584',-1.060
'0:02.586',-1.045
'0:02.588',-1.045
'0:02.590',-1.050
'0:02.592',-1.070
'0:02.594',-1.080
'0:02.596',-1.050
'0:02.598',-1.035
'0:02.600',-1.045
'0:02.602',-1.045
'0:02.604',-1.045
'0:02.606',-1.045
'0:02.608',-1.005
'0:02.610',-1.035
'0:02.612',-1.065
'0:02.614',-1.060
'0:02.616',-1.050
'0:02.618',-1.030
'0:02.620',-1.055
'0:02.622',-1.055
'0:02.624',-1.050
'0:02.626',-1.055
'0:02.628',-1.075
'0:02.630',-1.050
'0:02.632',-1.045
'0:02.634',-1.055
'0:02.636',-1.060
'0:02.638',-1.040
'0:02.640',-1.035
'0:02.642',-1.040
'0:02.644',-1.075
'0:02.646',-1.045
'0:02.648',-1.055
'0:02.650',-1.050
'0:02.652',-1.055
'0:02.654',-1.055
'0:02.656',-1.045
'0:02.658',-1.065
'0:02.660',-1.050
'0:02.662',-1.070
'0:02.664',-1.060
'0:02.666',-1.040
'0:02.668',-1.070
'0:02.670',-1.035
'0:02.672',-1.070
'0:02.674',-1.045
'0:02.676',-1.045
'0:02.678',-1.045
'0:02.680',-1.065
'0:02.682',-1.055
'0:02.684',-1.050
'0:02.686',-1.045
'0:02.688',-1.020
'0:02.690',-1.035
'0:02.692',-1.035
'0:02.694',-1.035
'0:02.696',-1.035
'0:02.698',-1.070
'0:02.700',-1.025
'0:02.702',-1.055
'0:02.704',-1.035
'0:02.706',-1.010
'0:02.708',-1.025
'0:02.710',-1.030
'0:02.712',-1.015
'0:02.714',-1.020
'0:02.716',-1.020
'0:02.718',-1.000
'0:02.720',-1.005
'0:02.722',-0.990
'0:02.724',-0.980
'0:02.726',-0.990
'0:02.728',-0.985
'0:02.730',-0.985
'0:02.732',-0.960
'0:02.734',-0.995
'0:02.736',-0.990
'0:02.738',-1.000
'0:02.740',-0.975
'0:02.742',-0.980
'0:02.744',-0.970
'0:02.746',-0.945
'0:02.748',-1.005
'0:02.750',-1.000
'0:02.752',-0.975
'0:02.754',-1.015
'0:02.756',-1.025
'0:02.758',-1.060
'0:02.760',-1.050
'0:02.762',-1.040
'0:02.764',-1.060
'0:02.766',-1.045
'0:02.768',-1.035
'0:02.770',-1.050
'0:02.772',-1.055
'0:02.774',-1.065
'0:02.776',-1.050
'0:02.778',-1.060
'0:02.780',-1.065
'0:02.782',-1.035
'0:02.784',-1.055
'0:02.786',-1.060
'0:02.788',-1.050
'0:02.790',-1.070
'0:02.792',-1.070
'0:02.794',-1.090
'0:02.796',-1.095
'0:02.798',-1.080
'0:02.800',-1.075
'0:02.802',-1.055
'0:02.804',-1.045
'0:02.806',-1.070
'0:02.808',-1.060
'0:02.810',-1.070
'0:02.812',-1.060
'0:02.814',-1.060
'0:02.816',-1.040
'0:02.818',-1.085
'0:02.820',-1.090
'0:02.822',-1.055
'0:02.824',-1.065
'0:02.826',-1.060
'0:02.828',-1.085
'0:02.830',-1.070
'0:02.832',-1.070
'0:02.834',-1.085
'0:02.836',-1.085
'0:02.838',-1.100
'0:02.840',-1.130
'0:02.842',-1.165
'0:02.844',-1.185
'0:02.846',-1.250
'0:02.848',-1.270
'0:02.850',-1.305
'0:02.852',-1.285
'0:02.854',-1.280
'0:02.856',-1.210
'0:02.858',-1.090
'0:02.860',-0.970
'0:02.862',-0.835
'0:02.864',-0.645
'0:02.866',-0.470
'0:02.868',-0.295
'0:02.870',-0.145
'0:02.872',-0.005
'0:02.874',0.095
'0:02.876',0.110
'0:02.878',0.075
'0:02.880',0.005
'0:02.882',-0.050
'0:02.884',-0.165
'0:02.886',-0.235
'0:02.888',-0.345
'0:02.890',-0.490
'0:02.892',-0.615
'0:02.894',-0.715
'0:02.896',-0.755
'0:02.898',-0.825
'0:02.900',-0.865
'0:02.902',-0.875
'0:02.904',-0.930
'0:02.906',-0.945
'0:02.908',-0.965
'0:02.910',-1.020
'0:02.912',-1.015
'0:02.914',-1.015
'0:02.916',-1.025
'0:02.918',-1.050
'0:02.920',-1.020
'0:02.922',-1.035
'0:02.924',-1.035
'0:02.926',-1.045
'0:02.928',-1.070
'0:02.930',-1.065
'0:02.932',-1.065
'0:02.934',-1.070
'0:02.936',-1.070
'0:02.938',-1.075
'0:02.940',-1.065
'0:02.942',-1.065
'0:02.944',-1.085
'0:02.946',-1.075
'0:02.948',-1.070
'0:02.950',-1.070
'0:02.952',-1.070
'0:02.954',-1.075
'0:02.956',-1.095
'0:02.958',-1.075
'0:02.960',-1.070
'0:02.962',-1.075
'0:02.964',-1.060
'0:02.966',-1.060
'0:02.968',-1.100
'0:02.970',-1.075
'0:02.972',-1.080
'0:02.974',-1.095
'0:02.976',-1.070
'0:02.978',-1.070
'0:02.980',-1.065
'0:02.982',-1.060
'0:02.984',-1.070
'0:02.986',-1.040
'0:02.988',-1.065
'0:02.990',-1.075
'0:02.992',-1.075
'0:02.994',-1.080
'0:02.996',-1.065
'0:02.998',-1.060
'0:03.000',-1.060
'0:03.002',-1.075
'0:03.004',-1.085
'0:03.006',-1.075
'0:03.008',-1.070
'0:03.010',-1.060
'0:03.012',-1.075
'0:03.014',-1.075
'0:03.016',-1.060
'0:03.018',-1.065
'0:03.020',-1.065
'0:03.022',-1.040
'0:03.024',-1.040
'0:03.026',-1.040
'0:03.028',-1.040
'0:03.030',-1.030
'0:03.032',-1.045
'0:03.034',-0.985
'0:03.036',-1.040
'0:03.038',-1.060
'0:03.040',-1.030
'0:03.042',-1.020
'0:03.044',-1.050
'0:03.046',-1.050
'0:03.048',-1.025
'0:03.050',-1.015
'0:03.052',-1.025
'0:03.054',-1.030
'0:03.056',-1.030
'0:03.058',-1.040
'0:03.060',-0.995
'0:03.062',-1.000
'0:03.064',-0.995
'0:03.066',-0.995
'0:03.068',-1.010
'0:03.070',-0.995
'0:03.072',-1.005
'0:03.074',-0.985
'0:03.076',-0.975
'0:03.078',-0.975
'0:03.080',-0.945
'0:03.082',-0.950
'0:03.084',-0.965
'0:03.086',-0.960
'0:03.088',-0.940
'0:03.090',-0.935
'0:03.092',-0.930
'0:03.094',-0.910
'0:03.096',-0.905
'0:03.098',-0.925
'0:03.100',-0.915
'0:03.102',-0.895
'0:03.104',-0.925
'0:03.106',-0.940
'0:03.108',-0.915
'0:03.110',-0.890
'0:03.112',-0.905
'0:03.114',-0.900
'0:03.116',-0.900
'0:03.118',-0.885
'0:03.120',-0.885
'0:03.122',-0.890
'0:03.124',-0.895
'0:03.126',-0.885
'0:03.128',-0.885
'0:03.130',-0.915
'0:03.132',-0.915
'0:03.134',-0.935
'0:03.136',-0.925
'0:03.138',-0.915
'0:03.140',-0.900
'0:03.142',-0.900
'0:03.144',-0.920
'0:03.146',-0.920
'0:03.148',-0.920
'0:03.150',-0.935
'0:03.152',-0.945
'0:03.154',-0.975
'0:03.156',-0.985
'0:03.158',-0.985
'0:03.160',-0.980
'0:03.162',-0.965
'0:03.164',-0.995
'0:03.166',-1.000
'0:03.168',-1.005
'0:03.170',-1.015
'0:03.172',-1.020
'0:03.174',-1.035
'0:03.176',-1.030
'0:03.178',-1.025
'0:03.180',-1.040
'0:03.182',-1.030
'0:03.184',-1.030
'0:03.186',-1.045
'0:03.188',-1.040
'0:03.190',-1.045
'0:03.192',-1.035
'0:03.194',-1.065
'0:03.196',-1.060
'0:03.198',-1.035
'0:03.200',-1.040
'0:03.202',-1.050
'0:03.204',-1.045
'0:03.206',-1.055
'0:03.208',-1.050
'0:03.210',-1.045
'0:03.212',-1.055
'0:03.214',-1.065
'0:03.216',-1.070
'0:03.218',-1.060
'0:03.220',-1.065
'0:03.222',-1.065
'0:03.224',-1.055
'0:03.226',-1.060
'0:03.228',-1.045
'0:03.230',-1.020
'0:03.232',-1.050
'0:03.234',-1.045
'0:03.236',-1.045
'0:03.238',-1.050
'0:03.240',-1.050
'0:03.242',-1.050
'0:03.244',-1.035
'0:03.246',-1.045
'0:03.248',-1.055
'0:03.250',-1.045
'0:03.252',-1.035
'0:03.254',-1.065
'0:03.256',-1.060
'0:03.258',-1.025
'0:03.260',-1.010
'0:03.262',-1.055
'0:03.264',-1.065
'0:03.266',-1.060
'0:03.268',-1.060
'0:03.270',-1.070
'0:03.272',-1.075
'0:03.274',-1.060
'0:03.276',-1.075
'0:03.278',-1.050
'0:03.280',-1.050
'0:03.282',-1.065
'0:03.284',-1.075
'0:03.286',-1.060
'0:03.288',-1.070
'0:03.290',-1.060
'0:03.292',-1.060
'0:03.294',-1.065
'0:03.296',-1.065
'0:03.298',-1.055
'0:03.300',-1.060
'0:03.302',-1.045
'0:03.304',-1.065
'0:03.306',-1.045
'0:03.308',-1.055
'0:03.310',-1.060
'0:03.312',-1.065
'0:03.314',-1.055
'0:03.316',-1.060
'0:03.318',-1.045
'0:03.320',-1.065
'0:03.322',-1.065
'0:03.324',-1.050
'0:03.326',-1.040
'0:03.328',-1.045
'0:03.330',-1.045
'0:03.332',-1.060
'0:03.334',-1.065
'0:03.336',-1.060
'0:03.338',-1.055
'0:03.340',-1.045
'0:03.342',-1.050
'0:03.344',-1.040
'0:03.346',-1.040
'0:03.348',-1.070
'0:03.350',-1.070
'0:03.352',-1.060
'0:03.354',-1.055
'0:03.356',-1.060
'0:03.358',-1.060
'0:03.360',-1.045
'0:03.362',-1.055
'0:03.364',-1.055
'0:03.366',-1.065
'0:03.368',-1.065
'0:03.370',-1.070
'0:03.372',-1.045
'0:03.374',-1.040
'0:03.376',-1.060
'0:03.378',-1.050
'0:03.380',-1.050
'0:03.382',-1.065
'0:03.384',-1.050
'0:03.386',-1.050
'0:03.388',-1.030
'0:03.390',-1.040
'0:03.392',-1.055
'0:03.394',-1.055
'0:03.396',-1.055
'0:03.398',-1.040
'0:03.400',-1.050
'0:03.402',-1.075
'0:03.404',-1.075
'0:03.406',-1.035
'0:03.408',-1.065
'0:03.410',-1.085
'0:03.412',-1.090
'0:03.414',-1.050
'0:03.416',-1.055
'0:03.418',-1.075
'0:03.420',-1.045
'0:03.422',-1.055
'0:03.424',-1.055
'0:03.426',-1.050
'0:03.428',-1.070
'0:03.430',-1.065
'0:03.432',-1.055
'0:03.434',-1.080
'0:03.436',-1.035
'0:03.438',-1.065
'0:03.440',-1.055
'0:03.442',-1.055
'0:03.444',-1.065
'0:03.446',-1.065
'0:03.448',-1.080
'0:03.450',-1.050
'0:03.452',-1.055
'0:03.454',-1.065
'0:03.456',-1.050
'0:03.458',-1.055
'0:03.460',-1.075
'0:03.462',-1.040
'0:03.464',-1.060
'0:03.466',-1.080
'0:03.468',-1.075
'0:03.470',-1.060
'0:03.472',-1.070
'0:03.474',-1.075
'0:03.476',-1.075
'0:03.478',-1.055
'0:03.480',-1.075
'0:03.482',-1.070
'0:03.484',-1.080
'0:03.486',-1.085
'0:03.488',-1.050
'0:03.490',-1.060
'0:03.492',-1.070
'0:03.494',-1.075
'0:03.496',-1.075
'0:03.498',-1.070
'0:03.500',-1.050
'0:03.502',-1.050
'0:03.504',-1.085
'0:03.506',-1.060
'0:03.508',-1.080
'0:03.510',-1.080
'0:03.512',-1.100
'0:03.514',-1.090
'0:03.516',-1.075
'0:03.518',-1.080
'0:03.520',-1.035
'0:03.522',-1.080
'0:03.524',-1.070
'0:03.526',-1.070
'0:03.528',-1.055
'0:03.530',-1.070
'0:03.532',-1.090
'0:03.534',-1.095
'0:03.536',-1.085
'0:03.538',-1.065
'0:03.540',-1.090
'0:03.542',-1.090
'0:03.544',-1.075
'0:03.546',-1.060
'0:03.548',-1.045
'0:03.550',-1.070
'0:03.552',-1.075
'0:03.554',-1.070
'0:03.556',-1.065
'0:03.558',-1.040
'0:03.560',-1.055
'0:03.562',-1.040
'0:03.564',-1.025
'0:03.566',-1.050
'0:03.568',-1.060
'0:03.570',-1.050
'0:03.572',-1.055
'0:03.574',-1.035
'0:03.576',-1.045
'0:03.578',-1.010
'0:03.580',-1.005
'0:03.582',-0.985
'0:03.584',-0.940
'0:03.586',-1.000
'0:03.588',-0.985
'0:03.590',-0.980
'0:03.592',-0.995
'0:03.594',-1.010
'0:03.596',-1.005
'0:03.598',-0.980
'0:03.600',-1.010
'0:03.602',-1.015
'0:03.604',-1.000
'0:03.606',-0.980
'0:03.608',-1.005
'0:03.610',-1.000
'0:03.612',-1.010
'0:03.614',-1.030
'0:03.616',-1.035
'0:03.618',-1.030
'0:03.620',-1.045
'0:03.622',-1.050
'0:03.624',-1.040
'0:03.626',-1.055
'0:03.628',-1.050
'0:03.630',-1.070
'0:03.632',-1.050
'0:03.634',-1.030
'0:03.636',-1.030
'0:03.638',-1.035
'0:03.640',-1.025
'0:03.642',-1.015
'0:03.644',-1.030
'0:03.646',-1.030
'0:03.648',-1.055
'0:03.650',-1.035
'0:03.652',-1.060
'0:03.654',-1.040
'0:03.656',-1.045
'0:03.658',-1.050
'0:03.660',-1.035
'0:03.662',-1.035
'0:03.664',-1.010
'0:03.666',-1.010
'0:03.668',-1.005
'0:03.670',-0.980
'0:03.672',-0.985
'0:03.674',-0.980
'0:03.676',-0.980
'0:03.678',-0.980
'0:03.680',-0.960
'0:03.682',-0.985
'0:03.684',-0.980
'0:03.686',-0.960
'0:03.688',-0.960
'0:03.690',-0.950
'0:03.692',-0.950
'0:03.694',-0.960
'0:03.696',-0.980
'0:03.698',-1.030
'0:03.700',-1.040
'0:03.702',-1.090
'0:03.704',-1.125
'0:03.706',-1.160
'0:03.708',-1.140
'0:03.710',-1.135
'0:03.712',-1.085
'0:03.714',-0.995
'0:03.716',-0.850
'0:03.718',-0.700
'0:03.720',-0.535
'0:03.722',-0.375
'0:03.724',-0.185
'0:03.726',-0.065
'0:03.728',0.090
'0:03.730',0.195
'0:03.732',0.245
'0:03.734',0.205
'0:03.736',0.120
'0:03.738',0.065
'0:03.740',-0.040
'0:03.742',-0.120
'0:03.744',-0.210
'0:03.746',-0.365
'0:03.748',-0.495
'0:03.750',-0.570
'0:03.752',-0.630
'0:03.754',-0.665
'0:03.756',-0.700
'0:03.758',-0.740
'0:03.760',-0.780
'0:03.762',-0.815
'0:03.764',-0.840
'0:03.766',-0.850
'0:03.768',-0.860
'0:03.770',-0.865
'0:03.772',-0.835
'0:03.774',-0.850
'0:03.776',-0.885
'0:03.778',-0.865
'0:03.780',-0.850
'0:03.782',-0.920
'0:03.784',-0.905
'0:03.786',-0.900
'0:03.788',-0.910
'0:03.790',-0.920
'0:03.792',-0.915
'0:03.794',-0.915
'0:03.796',-0.895
'0:03.798',-0.920
'0:03.800',-0.910
'0:03.802',-0.900
'0:03.804',-0.910
'0:03.806',-0.900
'0:03.808',-0.920
'0:03.810',-0.925
'0:03.812',-0.920
'0:03.814',-0.915
'0:03.816',-0.915
'0:03.818',-0.910
'0:03.820',-0.905
'0:03.822',-0.905
'0:03.824',-0.905
'0:03.826',-0.930
'0:03.828',-0.920
'0:03.830',-0.940
'0:03.832',-0.920
'0:03.834',-0.885
'0:03.836',-0.905
'0:03.838',-0.905
'0:03.840',-0.895
'0:03.842',-0.905
'0:03.844',-0.930
'0:03.846',-0.935
'0:03.848',-0.915
'0:03.850',-0.920
'0:03.852',-0.890
'0:03.854',-0.935
'0:03.856',-0.910
'0:03.858',-0.910
'0:03.860',-0.920
'0:03.862',-0.920
'0:03.864',-0.905
'0:03.866',-0.930
'0:03.868',-0.920
'0:03.870',-0.895
'0:03.872',-0.875
'0:03.874',-0.905
'0:03.876',-0.885
'0:03.878',-0.865
'0:03.880',-0.880
'0:03.882',-0.890
'0:03.884',-0.885
'0:03.886',-0.890
'0:03.888',-0.870
'0:03.890',-0.870
'0:03.892',-0.880
'0:03.894',-0.870
'0:03.896',-0.855
'0:03.898',-0.830
'0:03.900',-0.840
'0:03.902',-0.850
'0:03.904',-0.845
'0:03.906',-0.850
'0:03.908',-0.860
'0:03.910',-0.850
'0:03.912',-0.855
'0:03.914',-0.845
'0:03.916',-0.810
'0:03.918',-0.810
'0:03.920',-0.835
'0:03.922',-0.825
'0:03.924',-0.830
'0:03.926',-0.810
'0:03.928',-0.820
'0:03.930',-0.810
'0:03.932',-0.805
'0:03.934',-0.790
'0:03.936',-0.785
'0:03.938',-0.795
'0:03.940',-0.785
'0:03.942',-0.770
'0:03.944',-0.750
'0:03.946',-0.760
'0:03.948',-0.760
'0:03.950',-0.770
'0:03.952',-0.745
'0:03.954',-0.740
'0:03.956',-0.750
'0:03.958',-0.720
'0:03.960',-0.720
'0:03.962',-0.725
'0:03.964',-0.705
'0:03.966',-0.715
'0:03.968',-0.700
'0:03.970',-0.700
'0:03.972',-0.730
'0:03.974',-0.715
'0:03.976',-0.695
'0:03.978',-0.730
'0:03.980',-0.715
'0:03.982',-0.680
'0:03.984',-0.715
'0:03.986',-0.740
'0:03.988',-0.730
'0:03.990',-0.735
'0:03.992',-0.720
'0:03.994',-0.710
'0:03.996',-0.735
'0:03.998',-0.750
'0:04.000',-0.750
'0:04.002',-0.790
'0:04.004',-0.770
'0:04.006',-0.770
'0:04.008',-0.780
'0:04.010',-0.790
'0:04.012',-0.785
'0:04.014',-0.785
'0:04.016',-0.790
'0:04.018',-0.800
'0:04.020',-0.830
'0:04.022',-0.810
'0:04.024',-0.800
'0:04.026',-0.825
'0:04.028',-0.850
'0:04.030',-0.830
'0:04.032',-0.830
'0:04.034',-0.845
'0:04.036',-0.840
'0:04.038',-0.850
'0:04.040',-0.845
'0:04.042',-0.855
'0:04.044',-0.870
'0:04.046',-0.860
'0:04.048',-0.845
'0:04.050',-0.880
'0:04.052',-0.885
'0:04.054',-0.885
'0:04.056',-0.875
'0:04.058',-0.850
'0:04.060',-0.855
'0:04.062',-0.860
'0:04.064',-0.870
'0:04.066',-0.880
'0:04.068',-0.850
'0:04.070',-0.850
'0:04.072',-0.865
'0:04.074',-0.875
'0:04.076',-0.880
'0:04.078',-0.875
'0:04.080',-0.885
'0:04.082',-0.865
'0:04.084',-0.875
'0:04.086',-0.885
'0:04.088',-0.880
'0:04.090',-0.870
'0:04.092',-0.885
'0:04.094',-0.870
'0:04.096',-0.875
'0:04.098',-0.860
'0:04.100',-0.880
'0:04.102',-0.870
'0:04.104',-0.865
'0:04.106',-0.870
'0:04.108',-0.875
'0:04.110',-0.875
'0:04.112',-0.870
'0:04.114',-0.885
'0:04.116',-0.875
'0:04.118',-0.855
'0:04.120',-0.875
'0:04.122',-0.885
'0:04.124',-0.900
'0:04.126',-0.865
'0:04.128',-0.875
'0:04.130',-0.870
'0:04.132',-0.860
'0:04.134',-0.860
'0:04.136',-0.925
'0:04.138',-0.900
'0:04.140',-0.890
'0:04.142',-0.885
'0:04.144',-0.855
'0:04.146',-0.865
'0:04.148',-0.840
'0:04.150',-0.865
'0:04.152',-0.845
'0:04.154',-0.860
'0:04.156',-0.885
'0:04.158',-0.880
'0:04.160',-0.885
'0:04.162',-0.870
'0:04.164',-0.860
'0:04.166',-0.880
'0:04.168',-0.870
'0:04.170',-0.875
'0:04.172',-0.885
'0:04.174',-0.860
'0:04.176',-0.860
'0:04.178',-0.850
'0:04.180',-0.835
'0:04.182',-0.870
'0:04.184',-0.840
'0:04.186',-0.850
'0:04.188',-0.860
'0:04.190',-0.860
'0:04.192',-0.860
'0:04.194',-0.880
'0:04.196',-0.845
'0:04.198',-0.865
'0:04.200',-0.855
'0:04.202',-0.820
'0:04.204',-0.820
'0:04.206',-0.835
'0:04.208',-0.835
'0:04.210',-0.850
'0:04.212',-0.860
'0:04.214',-0.850
'0:04.216',-0.860
'0:04.218',-0.850
'0:04.220',-0.845
'0:04.222',-0.825
'0:04.224',-0.845
'0:04.226',-0.865
'0:04.228',-0.825
'0:04.230',-0.840
'0:04.232',-0.870
'0:04.234',-0.855
'0:04.236',-0.845
'0:04.238',-0.855
'0:04.240',-0.840
'0:04.242',-0.850
'0:04.244',-0.845
'0:04.246',-0.860
'0:04.248',-0.865
'0:04.250',-0.865
'0:04.252',-0.835
'0:04.254',-0.870
'0:04.256',-0.860
'0:04.258',-0.865
'0:04.260',-0.830
'0:04.262',-0.850
'0:04.264',-0.865
'0:04.266',-0.860
'0:04.268',-0.855
'0:04.270',-0.870
'0:04.272',-0.865
'0:04.274',-0.855
'0:04.276',-0.850
'0:04.278',-0.860
'0:04.280',-0.855
'0:04.282',-0.865
'0:04.284',-0.865
'0:04.286',-0.855
'0:04.288',-0.885
'0:04.290',-0.860
'0:04.292',-0.865
'0:04.294',-0.830
'0:04.296',-0.885
'0:04.298',-0.850
'0:04.300',-0.850
'0:04.302',-0.875
'0:04.304',-0.870
'0:04.306',-0.855
'0:04.308',-0.865
'0:04.310',-0.865
'0:04.312',-0.875
'0:04.314',-0.850
'0:04.316',-0.885
'0:04.318',-0.865
'0:04.320',-0.865
'0:04.322',-0.870
'0:04.324',-0.865
'0:04.326',-0.870
'0:04.328',-0.885
'0:04.330',-0.860
'0:04.332',-0.880
'0:04.334',-0.890
'0:04.336',-0.835
'0:04.338',-0.850
'0:04.340',-0.870
'0:04.342',-0.865
'0:04.344',-0.855
'0:04.346',-0.875
'0:04.348',-0.890
'0:04.350',-0.850
'0:04.352',-0.850
'0:04.354',-0.840
'0:04.356',-0.860
'0:04.358',-0.865
'0:04.360',-0.860
'0:04.362',-0.875
'0:04.364',-0.870
'0:04.366',-0.875
'0:04.368',-0.890
'0:04.370',-0.880
'0:04.372',-0.875
'0:04.374',-0.855
'0:04.376',-0.860
'0:04.378',-0.855
'0:04.380',-0.880
'0:04.382',-0.880
'0:04.384',-0.850
'0:04.386',-0.850
'0:04.388',-0.870
'0:04.390',-0.855
'0:04.392',-0.850
'0:04.394',-0.850
'0:04.396',-0.850
'0:04.398',-0.850
'0:04.400',-0.835
'0:04.402',-0.875
'0:04.404',-0.880
'0:04.406',-0.850
'0:04.408',-0.860
'0:04.410',-0.840
'0:04.412',-0.835
'0:04.414',-0.845
'0:04.416',-0.840
'0:04.418',-0.830
'0:04.420',-0.830
'0:04.422',-0.825
'0:04.424',-0.835
'0:04.426',-0.810
'0:04.428',-0.815
'0:04.430',-0.830
'0:04.432',-0.800
'0:04.434',-0.805
'0:04.436',-0.810
'0:04.438',-0.805
'0:04.440',-0.790
'0:04.442',-0.760
'0:04.444',-0.775
'0:04.446',-0.750
'0:04.448',-0.800
'0:04.450',-0.795
'0:04.452',-0.800
'0:04.454',-0.795
'0:04.456',-0.780
'0:04.458',-0.790
'0:04.460',-0.810
'0:04.462',-0.785
'0:04.464',-0.810
'0:04.466',-0.825
'0:04.468',-0.825
'0:04.470',-0.835
'0:04.472',-0.835
'0:04.474',-0.815
'0:04.476',-0.800
'0:04.478',-0.875
'0:04.480',-0.845
'0:04.482',-0.855
'0:04.484',-0.860
'0:04.486',-0.850
'0:04.488',-0.845
'0:04.490',-0.850
'0:04.492',-0.845
'0:04.494',-0.870
'0:04.496',-0.850
'0:04.498',-0.870
'0:04.500',-0.840
'0:04.502',-0.845
'0:04.504',-0.890
'0:04.506',-0.875
'0:04.508',-0.880
'0:04.510',-0.865
'0:04.512',-0.865
'0:04.514',-0.860
'0:04.516',-0.850
'0:04.518',-0.855
'0:04.520',-0.865
'0:04.522',-0.880
'0:04.524',-0.865
'0:04.526',-0.860
'0:04.528',-0.870
'0:04.530',-0.875
'0:04.532',-0.885
'0:04.534',-0.880
'0:04.536',-0.905
'0:04.538',-0.895
'0:04.540',-0.875
'0:04.542',-0.885
'0:04.544',-0.885
'0:04.546',-0.895
'0:04.548',-0.885
'0:04.550',-0.930
'0:04.552',-0.940
'0:04.554',-0.975
'0:04.556',-1.020
'0:04.558',-1.075
'0:04.560',-1.095
'0:04.562',-1.070
'0:04.564',-1.075
'0:04.566',-1.010
'0:04.568',-0.935
'0:04.570',-0.800
'0:04.572',-0.645
'0:04.574',-0.480
'0:04.576',-0.285
'0:04.578',-0.120
'0:04.580',0.025
'0:04.582',0.170
'0:04.584',0.265
'0:04.586',0.340
'0:04.588',0.310
'0:04.590',0.265
'0:04.592',0.180
'0:04.594',0.070
'0:04.596',-0.010
'0:04.598',-0.100
'0:04.600',-0.800
'0:04.602',-0.815
'0:04.604',-0.825
'0:04.606',-0.830
'0:04.608',-0.840
'0:04.610',-0.850
'0:04.612',-0.840
'0:04.614',-0.865
'0:04.616',-0.865
'0:04.618',-0.870
'0:04.620',-0.875
'0:04.622',-0.875
'0:04.624',-0.860
'0:04.626',-0.875
'0:04.628',-0.885
'0:04.630',-0.865
'0:04.632',-0.890
'0:04.634',-0.875
'0:04.636',-0.890
'0:04.638',-0.900
'0:04.640',-0.855
'0:04.642',-0.875
'0:04.644',-0.880
'0:04.646',-0.895
'0:04.648',-0.885
'0:04.650',-0.885
'0:04.652',-0.885
'0:04.654',-0.880
'0:04.656',-0.875
'0:04.658',-0.870
'0:04.660',-0.870
'0:04.662',-0.910
'0:04.664',-0.875
'0:04.666',-0.905
'0:04.668',-0.890
'0:04.670',-0.890
'0:04.672',-0.890
'0:04.674',-0.870
'0:04.676',-0.890
'0:04.678',-0.900
'0:04.680',-0.885
'0:04.682',-0.870
'0:04.684',-0.880
'0:04.686',-0.900
'0:04.688',-0.905
'0:04.690',-0.920
'0:04.692',-0.890
'0:04.694',-0.890
'0:04.696',-0.925
'0:04.698',-0.920
'0:04.700',-0.915
'0:04.702',-0.915
'0:04.704',-0.925
'0:04.706',-0.930
'0:04.708',-0.925
'0:04.710',-0.910
'0:04.712',-0.915
'0:04.714',-0.915
'0:04.716',-0.920
'0:04.718',-0.940
'0:04.720',-0.905
'0:04.722',-0.915
'0:04.724',-0.920
'0:04.726',-0.900
'0:04.728',-0.910
'0:04.730',-0.905
'0:04.732',-0.910
'0:04.734',-0.930
'0:04.736',-0.905
'0:04.738',-0.895
'0:04.740',-0.890
'0:04.742',-0.895
'0:04.744',-0.895
'0:04.746',-0.890
'0:04.748',-0.890
'0:04.750',-0.875
'0:04.752',-0.870
'0:04.754',-0.880
'0:04.756',-0.875
'0:04.758',-0.860
'0:04.760',-0.865
'0:04.762',-0.855
'0:04.764',-0.855
'0:04.766',-0.860
'0:04.768',-0.835
'0:04.770',-0.840
'0:04.772',-0.855
'0:04.774',-0.880
'0:04.776',-0.820
'0:04.778',-0.825
'0:04.780',-0.810
'0:04.782',-0.800
'0:04.784',-0.810
'0:04.786',-0.810
'0:04.788',-0.785
'0:04.790',-0.770
'0:04.792',-0.780
'0:04.794',-0.760
'0:04.796',-0.755
'0:04.798',-0.770
'0:04.800',-0.785
'0:04.802',-0.790
'0:04.804',-0.775
'0:04.806',-0.745
'0:04.808',-0.755
'0:04.810',-0.775
'0:04.812',-0.755
'0:04.814',-0.755
'0:04.816',-0.760
'0:04.818',-0.765
'0:04.820',-0.770
'0:04.822',-0.775
'0:04.824',-0.775
'0:04.826',-0.775
'0:04.828',-0.770
'0:04.830',-0.785
'0:04.832',-0.805
'0:04.834',-0.820
'0:04.836',-0.815
'0:04.838',-0.810
'0:04.840',-0.830
'0:04.842',-0.825
'0:04.844',-0.845
'0:04.846',-0.845
'0:04.848',-0.865
'0:04.850',-0.875
'0:04.852',-0.865
'0:04.854',-0.885
'0:04.856',-0.895
'0:04.858',-0.885
'0:04.860',-0.890
'0:04.862',-0.900
'0:04.864',-0.910
'0:04.866',-0.905
'0:04.868',-0.885
'0:04.870',-0.915
'0:04.872',-0.915
'0:04.874',-0.905
'0:04.876',-0.925
'0:04.878',-0.955
'0:04.880',-0.930
'0:04.882',-0.930
'0:04.884',-0.935
'0:04.886',-0.920
'0:04.888',-0.945
'0:04.890',-0.950
'0:04.892',-0.940
'0:04.894',-0.950
'0:04.896',-0.945
'0:04.898',-0.955
'0:04.900',-0.960
'0:04.902',-0.940
'0:04.904',-0.945
'0:04.906',-0.955
'0:04.908',-0.920
'0:04.910',-0.940
'0:04.912',-0.940
'0:04.914',-0.950
'0:04.916',-0.945
'0:04.918',-0.955
'0:04.920',-0.930
'0:04.922',-0.935
'0:04.924',-0.945
'0:04.926',-0.935
'0:04.928',-0.950
'0:04.930',-0.965
'0:04.932',-0.945
'0:04.934',-0.940
'0:04.936',-0.945
'0:04.938',-0.950
'0:04.940',-0.950
'0:04.942',-0.945
'0:04.944',-0.935
'0:04.946',-0.920
'0:04.948',-0.960
'0:04.950',-0.970
'0:04.952',-0.930
'0:04.954',-0.935
'0:04.956',-0.960
'0:04.958',-0.940
'0:04.960',-0.930
'0:04.962',-0.935
'0:04.964',-0.945
'0:04.966',-0.945
'0:04.968',-0.945
'0:04.970',-0.925
'0:04.972',-0.935
'0:04.974',-0.950
'0:04.976',-0.960
'0:04.978',-0.980
'0:04.980',-0.960
'0:04.982',-0.950
'0:04.984',-0.940
'0:04.986',-0.955
'0:04.988',-0.940
'0:04.990',-0.960
'0:04.992',-0.960
'0:04.994',-0.955
'0:04.996',-0.950
'0:04.998',-0.940
'0:05.000',-0.950
'0:05.002',-0.940
'0:05.004',-0.960
'0:05.006',-0.960
'0:05.008',-0.945
'0:05.010',-0.955
'0:05.012',-0.955
'0:05.014',-0.970
'0:05.016',-0.930
'0:05.018',-0.965
'0:05.020',-0.950
'0:05.022',-0.955
'0:05.024',-0.950
'0:05.026',-0.950
'0:05.028',-0.955
'0:05.030',-0.940
'0:05.032',-0.940
'0:05.034',-0.965
'0:05.036',-0.955
'0:05.038',-0.960
'0:05.040',-0.955
'0:05.042',-0.945
'0:05.044',-0.955
'0:05.046',-0.950
'0:05.048',-0.960
'0:05.050',-0.970
'0:05.052',-0.930
'0:05.054',-0.945
'0:05.056',-0.950
'0:05.058',-0.925
'0:05.060',-0.945
'0:05.062',-0.945
'0:05.064',-0.955
'0:05.066',-0.915
'0:05.068',-0.950
'0:05.070',-0.950
'0:05.072',-0.935
'0:05.074',-0.955
'0:05.076',-0.965
'0:05.078',-0.965
'0:05.080',-0.955
'0:05.082',-0.960
'0:05.084',-0.945
'0:05.086',-0.940
'0:05.088',-0.950
'0:05.090',-1.000
'0:05.092',-0.950
'0:05.094',-0.940
'0:05.096',-0.930
'0:05.098',-0.955
'0:05.100',-0.980
'0:05.102',-0.975
'0:05.104',-0.965
'0:05.106',-0.940
'0:05.108',-0.950
'0:05.110',-0.955
'0:05.112',-0.935
'0:05.114',-0.945
'0:05.116',-0.930
'0:05.118',-0.960
'0:05.120',-0.970
'0:05.122',-0.945
'0:05.124',-0.950
'0:05.126',-0.955
'0:05.128',-0.955
'0:05.130',-0.930
'0:05.132',-0.955
'0:05.134',-0.975
'0:05.136',-0.955
'0:05.138',-0.980
'0:05.140',-0.950
'0:05.142',-0.960
'0:05.144',-0.950
'0:05.146',-0.945
'0:05.148',-0.955
'0:05.150',-0.960
'0:05.152',-0.960
'0:05.154',-0.950
'0:05.156',-0.965
'0:05.158',-0.960
'0:05.160',-0.970
'0:05.162',-0.975
'0:05.164',-0.970
'0:05.166',-0.975
'0:05.168',-0.955
'0:05.170',-0.955
'0:05.172',-0.955
'0:05.174',-0.965
'0:05.176',-0.970
'0:05.178',-0.980
'0:05.180',-0.950
'0:05.182',-0.965
'0:05.184',-0.985
'0:05.186',-0.950
'0:05.188',-0.950
'0:05.190',-1.005
'0:05.192',-0.960
'0:05.194',-0.945
'0:05.196',-0.920
'0:05.198',-0.945
'0:05.200',-0.950
'0:05.202',-0.950
'0:05.204',-0.940
'0:05.206',-0.945
'0:05.208',-0.975
'0:05.210',-0.945
'0:05.212',-0.950
'0:05.214',-0.945
'0:05.216',-0.940
'0:05.218',-0.950
'0:05.220',-0.955
'0:05.222',-0.965
'0:05.224',-0.955
'0:05.226',-0.965
'0:05.228',-0.960
'0:05.230',-0.950
'0:05.232',-0.950
'0:05.234',-0.950
'0:05.236',-0.935
'0:05.238',-0.945
'0:05.240',-0.930
'0:05.242',-0.935
'0:05.244',-0.930
'0:05.246',-0.915
'0:05.248',-0.910
'0:05.250',-0.910
'0:05.252',-0.880
'0:05.254',-0.910
'0:05.256',-0.910
'0:05.258',-0.905
'0:05.260',-0.900
'0:05.262',-0.890
'0:05.264',-0.900
'0:05.266',-0.850
'0:05.268',-0.850
'0:05.270',-0.880
'0:05.272',-0.870
'0:05.274',-0.870
'0:05.276',-0.885
'0:05.278',-0.885
'0:05.280',-0.885
'0:05.282',-0.890
'0:05.284',-0.870
'0:05.286',-0.860
'0:05.288',-0.860
'0:05.290',-0.875
'0:05.292',-0.885
'0:05.294',-0.890
'0:05.296',-0.920
'0:05.298',-0.915
'0:05.300',-0.925
'0:05.302',-0.930
'0:05.304',-0.950
'0:05.306',-0.940
'0:05.308',-0.930
'0:05.310',-0.945
'0:05.312',-0.930
'0:05.314',-0.945
'0:05.316',-0.940
'0:05.318',-0.945
'0:05.320',-0.940
'0:05.322',-0.920
'0:05.324',-0.930
'0:05.326',-0.935
'0:05.328',-0.940
'0:05.330',-0.925
'0:05.332',-0.935
'0:05.334',-0.945
'0:05.336',-0.950
'0:05.338',-0.950
'0:05.340',-0.960
'0:05.342',-0.950
'0:05.344',-0.940
'0:05.346',-0.945
'0:05.348',-0.915
'0:05.350',-0.920
'0:05.352',-0.960
'0:05.354',-0.970
'0:05.356',-0.945
'0:05.358',-0.940
'0:05.360',-0.945
'0:05.362',-0.960
'0:05.364',-0.955
'0:05.366',-0.950
'0:05.368',-0.955
'0:05.370',-0.980
'0:05.372',-0.975
'0:05.374',-0.990
'0:05.376',-1.020
'0:05.378',-1.050
'0:05.380',-1.065
'0:05.382',-1.120
'0:05.384',-1.145
'0:05.386',-1.130
'0:05.388',-1.130
'0:05.390',-1.080
'0:05.392',-1.025
'0:05.394',-0.900
'0:05.396',-0.740
'0:05.398',-0.590
'0:05.400',-0.440
'0:05.402',-0.285
'0:05.404',-0.145
'0:05.406',0.010
'0:05.408',0.115
'0:05.410',0.185
'0:05.412',0.155
'0:05.414',0.100
'0:05.416',0.065
'0:05.418',-0.055
'0:05.420',-0.155
'0:05.422',-0.250
'0:05.424',-0.390
'0:05.426',-0.500
'0:05.428',-0.580
'0:05.430',-0.600
'0:05.432',-0.655
'0:05.434',-0.705
'0:05.436',-0.740
'0:05.438',-0.775
'0:05.440',-0.805
'0:05.442',-0.815
'0:05.444',-0.835
'0:05.446',-0.845
'0:05.448',-0.865
'0:05.450',-0.870
'0:05.452',-0.865
'0:05.454',-0.875
'0:05.456',-0.865
'0:05.458',-0.870
'0:05.460',-0.890
'0:05.462',-0.890
'0:05.464',-0.885
'0:05.466',-0.900
'0:05.468',-0.875
'0:05.470',-0.885
'0:05.472',-0.905
'0:05.474',-0.895
'0:05.476',-0.905
'0:05.478',-0.875
'0:05.480',-0.895
'0:05.482',-0.920
'0:05.484',-0.900
'0:05.486',-0.895
'0:05.488',-0.905
'0:05.490',-0.900
'0:05.492',-0.885
'0:05.494',-0.905
'0:05.496',-0.885
'0:05.498',-0.885
'0:05.500',-0.880
'0:05.502',-0.890
'0:05.504',-0.880
'0:05.506',-0.885
'0:05.508',-0.890
'0:05.510',-0.880
'0:05.512',-0.890
'0:05.514',-0.885
'0:05.516',-0.875
'0:05.518',-0.870
'0:05.520',-0.865
'0:05.522',-0.895
'0:05.524',-0.895
'0:05.526',-0.885
'0:05.528',-0.880
'0:05.530',-0.880
'0:05.532',-0.875
'0:05.534',-0.835
'0:05.536',-0.865
'0:05.538',-0.855
'0:05.540',-0.845
'0:05.542',-0.865
'0:05.544',-0.850
'0:05.546',-0.850
'0:05.548',-0.840
'0:05.550',-0.830
'0:05.552',-0.830
'0:05.554',-0.845
'0:05.556',-0.850
'0:05.558',-0.875
'0:05.560',-0.840
'0:05.562',-0.825
'0:05.564',-0.835
'0:05.566',-0.815
'0:05.568',-0.840
'0:05.570',-0.830
'0:05.572',-0.815
'0:05.574',-0.830
'0:05.576',-0.795
'0:05.578',-0.790
'0:05.580',-0.805
'0:05.582',-0.815
'0:05.584',-0.800
'0:05.586',-0.805
'0:05.588',-0.800
'0:05.590',-0.795
'0:05.592',-0.790
'0:05.594',-0.785
'0:05.596',-0.755
'0:05.598',-0.775
'0:05.600',-0.770
'0:05.602',-0.750
'0:05.604',-0.735
'0:05.606',-0.760
'0:05.608',-0.760
'0:05.610',-0.735
'0:05.612',-0.745
'0:05.614',-0.735
'0:05.616',-0.720
'0:05.618',-0.715
'0:05.620',-0.720
'0:05.622',-0.725
'0:05.624',-0.700
'0:05.626',-0.695
'0:05.628',-0.685
'0:05.630',-0.660
'0:05.632',-0.670
'0:05.634',-0.670
'0:05.636',-0.640
'0:05.638',-0.635
'0:05.640',-0.660
'0:05.642',-0.665
'0:05.644',-0.650
'0:05.646',-0.650
'0:05.648',-0.635
'0:05.650',-0.625
'0:05.652',-0.625
'0:05.654',-0.640
'0:05.656',-0.645
'0:05.658',-0.620
'0:05.660',-0.630
'0:05.662',-0.645
'0:05.664',-0.650
'0:05.666',-0.625
'0:05.668',-0.635
'0:05.670',-0.635
'0:05.672',-0.635
'0:05.674',-0.640
'0:05.676',-0.645
'0:05.678',-0.645
'0:05.680',-0.690
'0:05.682',-0.665
'0:05.684',-0.670
'0:05.686',-0.660
'0:05.688',-0.680
'0:05.690',-0.695
'0:05.692',-0.705
'0:05.694',-0.725
'0:05.696',-0.715
'0:05.698',-0.720
'0:05.700',-0.715
'0:05.702',-0.725
'0:05.704',-0.735
'0:05.706',-0.730
'0:05.708',-0.745
'0:05.710',-0.730
'0:05.712',-0.755
'0:05.714',-0.765
'0:05.716',-0.750
'0:05.718',-0.765
'0:05.720',-0.765
'0:05.722',-0.780
'0:05.724',-0.785
'0:05.726',-0.775
'0:05.728',-0.770
'0:05.730',-0.775
'0:05.732',-0.780
'0:05.734',-0.760
'0:05.736',-0.765
'0:05.738',-0.775
'0:05.740',-0.805
'0:05.742',-0.775
'0:05.744',-0.780
'0:05.746',-0.770
'0:05.748',-0.770
'0:05.750',-0.790
'0:05.752',-0.775
'0:05.754',-0.765
'0:05.756',-0.775
'0:05.758',-0.770
'0:05.760',-0.780
'0:05.762',-0.765
'0:05.764',-0.760
'0:05.766',-0.760
'0:05.768',-0.735
'0:05.770',-0.770
'0:05.772',-0.805
'0:05.774',-0.765
'0:05.776',-0.780
'0:05.778',-0.775
'0:05.780',-0.765
'0:05.782',-0.755
'0:05.784',-0.760
'0:05.786',-0.775
'0:05.788',-0.765
'0:05.790',-0.765
'0:05.792',-0.770
'0:05.794',-0.795
'0:05.796',-0.765
'0:05.798',-0.775
'0:05.800',-0.780
'0:05.802',-0.760
'0:05.804',-0.765
'0:05.806',-0.750
'0:05.808',-0.755
'0:05.810',-0.770
'0:05.812',-0.760
'0:05.814',-0.765
'0:05.816',-0.765
'0:05.818',-0.775
'0:05.820',-0.780
'0:05.822',-0.775
'0:05.824',-0.765
'0:05.826',-0.760
'0:05.828',-0.780
'0:05.830',-0.770
'0:05.832',-0.745
'0:05.834',-0.760
'0:05.836',-0.775
'0:05.838',-0.750
'0:05.840',-0.755
'0:05.842',-0.765
'0:05.844',-0.775
'0:05.846',-0.765
'0:05.848',-0.760
'0:05.850',-0.785
'0:05.852',-0.770
'0:05.854',-0.765
'0:05.856',-0.780
'0:05.858',-0.785
'0:05.860',-0.770
'0:05.862',-0.760
'0:05.864',-0.765
'0:05.866',-0.770
'0:05.868',-0.755
'0:05.870',-0.750
'0:05.872',-0.760
'0:05.874',-0.755
'0:05.876',-0.760
'0:05.878',-0.745
'0:05.880',-0.775
'0:05.882',-0.775
'0:05.884',-0.760
'0:05.886',-0.780
'0:05.888',-0.740
'0:05.890',-0.740
'0:05.892',-0.750
'0:05.894',-0.755
'0:05.896',-0.770
'0:05.898',-0.760
'0:05.900',-0.745
'0:05.902',-0.755
'0:05.904',-0.770
'0:05.906',-0.745
'0:05.908',-0.770
'0:05.910',-0.780
'0:05.912',-0.755
'0:05.914',-0.750
'0:05.916',-0.745
'0:05.918',-0.770
'0:05.920',-0.740
'0:05.922',-0.750
'0:05.924',-0.750
'0:05.926',-0.740
'0:05.928',-0.755
'0:05.930',-0.760
'0:05.932',-0.775
'0:05.934',-0.765
'0:05.936',-0.775
'0:05.938',-0.755
'0:05.940',-0.770
'0:05.942',-0.760
'0:05.944',-0.730
'0:05.946',-0.735
'0:05.948',-0.755
'0:05.950',-0.770
'0:05.952',-0.775
'0:05.954',-0.760
'0:05.956',-0.745
'0:05.958',-0.775
'0:05.960',-0.770
'0:05.962',-0.765
'0:05.964',-0.765
'0:05.966',-0.760
'0:05.968',-0.730
'0:05.970',-0.755
'0:05.972',-0.770
'0:05.974',-0.780
'0:05.976',-0.780
'0:05.978',-0.760
'0:05.980',-0.735
'0:05.982',-0.735
'0:05.984',-0.780
'0:05.986',-0.765
'0:05.988',-0.745
'0:05.990',-0.760
'0:05.992',-0.770
'0:05.994',-0.770
'0:05.996',-0.780
'0:05.998',-0.750
'0:06.000',-0.785
'0:06.002',-0.770
'0:06.004',-0.745
'0:06.006',-0.755
'0:06.008',-0.765
'0:06.010',-0.785
'0:06.012',-0.780
'0:06.014',-0.765
'0:06.016',-0.755
'0:06.018',-0.755
'0:06.020',-0.765
'0:06.022',-0.755
'0:06.024',-0.760
'0:06.026',-0.770
'0:06.028',-0.745
'0:06.030',-0.760
'0:06.032',-0.770
'0:06.034',-0.760
'0:06.036',-0.770
'0:06.038',-0.785
'0:06.040',-0.765
'0:06.042',-0.760
'0:06.044',-0.780
'0:06.046',-0.770
'0:06.048',-0.760
'0:06.050',-0.760
'0:06.052',-0.765
'0:06.054',-0.760
'0:06.056',-0.760
'0:06.058',-0.765
'0:06.060',-0.765
'0:06.062',-0.765
'0:06.064',-0.760
'0:06.066',-0.770
'0:06.068',-0.775
'0:06.070',-0.775
'0:06.072',-0.780
'0:06.074',-0.765
'0:06.076',-0.750
'0:06.078',-0.735
'0:06.080',-0.725
'0:06.082',-0.720
'0:06.084',-0.725
'0:06.086',-0.710
'0:06.088',-0.730
'0:06.090',-0.735
'0:06.092',-0.730
'0:06.094',-0.730
'0:06.096',-0.715
'0:06.098',-0.715
'0:06.100',-0.705
'0:06.102',-0.705
'0:06.104',-0.695
'0:06.106',-0.690
'0:06.108',-0.690
'0:06.110',-0.680
'0:06.112',-0.710
'0:06.114',-0.705
'0:06.116',-0.675
'0:06.118',-0.695
'0:06.120',-0.695
'0:06.122',-0.695
'0:06.124',-0.700
'0:06.126',-0.695
'0:06.128',-0.705
'0:06.130',-0.710
'0:06.132',-0.730
'0:06.134',-0.730
'0:06.136',-0.755
'0:06.138',-0.760
'0:06.140',-0.770
'0:06.142',-0.760
'0:06.144',-0.755
'0:06.146',-0.755
'0:06.148',-0.775
'0:06.150',-0.750
'0:06.152',-0.770
'0:06.154',-0.775
'0:06.156',-0.770
'0:06.158',-0.765
'0:06.160',-0.755
'0:06.162',-0.770
'0:06.164',-0.770
'0:06.166',-0.760
'0:06.168',-0.760
'0:06.170',-0.765
'0:06.172',-0.775
'0:06.174',-0.770
'0:06.176',-0.780
'0:06.178',-0.775
'0:06.180',-0.760
'0:06.182',-0.760
'0:06.184',-0.775
'0:06.186',-0.785
'0:06.188',-0.780
'0:06.190',-0.760
'0:06.192',-0.790
'0:06.194',-0.795
'0:06.196',-0.780
'0:06.198',-0.760
'0:06.200',-0.760
'0:06.202',-0.770
'0:06.204',-0.770
'0:06.206',-0.775
'0:06.208',-0.795
'0:06.210',-0.820
'0:06.212',-0.845
'0:06.214',-0.875
'0:06.216',-0.910
'0:06.218',-0.935
'0:06.220',-0.935
'0:06.222',-1.005
'0:06.224',-0.965
'0:06.226',-0.885
'0:06.228',-0.820
'0:06.230',-0.680
'0:06.232',-0.520
'0:06.234',-0.360
'0:06.236',-0.210
'0:06.238',-0.015
'0:06.240',0.120
'0:06.242',0.255
'0:06.244',0.340
'0:06.246',0.400
'0:06.248',0.370
'0:06.250',0.290
'0:06.252',0.250
'0:06.254',0.150
'0:06.256',0.065
'0:06.258',-0.050
'0:06.260',-0.185
'0:06.262',-0.320
'0:06.264',-0.370
'0:06.266',-0.440
'0:06.268',-0.490
'0:06.270',-0.515
'0:06.272',-0.580
'0:06.274',-0.620
'0:06.276',-0.650
'0:06.278',-0.665
'0:06.280',-0.680
'0:06.282',-0.685
'0:06.284',-0.690
'0:06.286',-0.700
'0:06.288',-0.725
'0:06.290',-0.725
'0:06.292',-0.755
'0:06.294',-0.725
'0:06.296',-0.715
'0:06.298',-0.740
'0:06.300',-0.750
'0:06.302',-0.745
'0:06.304',-0.735
'0:06.306',-0.770
'0:06.308',-0.745
'0:06.310',-0.745
'0:06.312',-0.770
'0:06.314',-0.765
'0:06.316',-0.770
'0:06.318',-0.760
'0:06.320',-0.760
'0:06.322',-0.775
'0:06.324',-0.770
'0:06.326',-0.765
'0:06.328',-0.765
'0:06.330',-0.765
'0:06.332',-0.750
'0:06.334',-0.770
'0:06.336',-0.755
'0:06.338',-0.760
'0:06.340',-0.765
'0:06.342',-0.750
'0:06.344',-0.750
'0:06.346',-0.760
'0:06.348',-0.770
'0:06.350',-0.745
'0:06.352',-0.760
'0:06.354',-0.775
'0:06.356',-0.770
'0:06.358',-0.760
'0:06.360',-0.745
'0:06.362',-0.740
'0:06.364',-0.745
'0:06.366',-0.755
'0:06.368',-0.760
'0:06.370',-0.770
'0:06.372',-0.760
'0:06.374',-0.725
'0:06.376',-0.750
'0:06.378',-0.715
'0:06.380',-0.735
'0:06.382',-0.760
'0:06.384',-0.730
'0:06.386',-0.725
'0:06.388',-0.760
'0:06.390',-0.740
'0:06.392',-0.740
'0:06.394',-0.750
'0:06.396',-0.735
'0:06.398',-0.735
'0:06.400',-0.755
'0:06.402',-0.740
'0:06.404',-0.720
'0:06.406',-0.735
'0:06.408',-0.725
'0:06.410',-0.725
'0:06.412',-0.730
'0:06.414',-0.715
'0:06.416',-0.715
'0:06.418',-0.705
'0:06.420',-0.695
'0:06.422',-0.690
'0:06.424',-0.705
'0:06.426',-0.710
'0:06.428',-0.700
'0:06.430',-0.690
'0:06.432',-0.705
'0:06.434',-0.690
'0:06.436',-0.685
'0:06.438',-0.695
'0:06.440',-0.685
'0:06.442',-0.670
'0:06.444',-0.660
'0:06.446',-0.630
'0:06.448',-0.630
'0:06.450',-0.645
'0:06.452',-0.655
'0:06.454',-0.630
'0:06.456',-0.640
'0:06.458',-0.625
'0:06.460',-0.630
'0:06.462',-0.620
'0:06.464',-0.610
'0:06.466',-0.615
'0:06.468',-0.600
'0:06.470',-0.600
'0:06.472',-0.605
'0:06.474',-0.580
'0:06.476',-0.555
'0:06.478',-0.565
'0:06.480',-0.595
'0:06.482',-0.585
'0:06.484',-0.575
'0:06.486',-0.585
'0:06.488',-0.575
'0:06.490',-0.580
'0:06.492',-0.570
'0:06.494',-0.600
'0:06.496',-0.565
'0:06.498',-0.570
'0:06.500',-0.580
'0:06.502',-0.590
'0:06.504',-0.575
'0:06.506',-0.585
'0:06.508',-0.600
'0:06.510',-0.595
'0:06.512',-0.615
'0:06.514',-0.625
'0:06.516',-0.625
'0:06.518',-0.645
'0:06.520',-0.650
'0:06.522',-0.650
'0:06.524',-0.650
'0:06.526',-0.660
'0:06.528',-0.665
'0:06.530',-0.690
'0:06.532',-0.670
'0:06.534',-0.665
'0:06.536',-0.685
'0:06.538',-0.705
'0:06.540',-0.695
'0:06.542',-0.700
'0:06.544',-0.705
'0:06.546',-0.705
'0:06.548',-0.710
'0:06.550',-0.715
'0:06.552',-0.735
'0:06.554',-0.745
'0:06.556',-0.745
'0:06.558',-0.715
'0:06.560',-0.735
'0:06.562',-0.730
'0:06.564',-0.740
'0:06.566',-0.755
'0:06.568',-0.715
'0:06.570',-0.720
'0:06.572',-0.730
'0:06.574',-0.725
'0:06.576',-0.720
'0:06.578',-0.735
'0:06.580',-0.730
'0:06.582',-0.755
'0:06.584',-0.730
'0:06.586',-0.720
'0:06.588',-0.740
'0:06.590',-0.735
'0:06.592',-0.735
'0:06.594',-0.725
'0:06.596',-0.740
'0:06.598',-0.740
'0:06.600',-0.730
'0:06.602',-0.720
'0:06.604',-0.715
'0:06.606',-0.750
'0:06.608',-0.725
'0:06.610',-0.735
'0:06.612',-0.735
'0:06.614',-0.720
'0:06.616',-0.725
'0:06.618',-0.740
'0:06.620',-0.745
'0:06.622',-0.710
'0:06.624',-0.730
'0:06.626',-0.730
'0:06.628',-0.735
'0:06.630',-0.730
'0:06.632',-0.735
'0:06.634',-0.710
'0:06.636',-0.730
'0:06.638',-0.720
'0:06.640',-0.750
'0:06.642',-0.745
'0:06.644',-0.735
'0:06.646',-0.755
'0:06.648',-0.760
'0:06.650',-0.745
'0:06.652',-0.730
'0:06.654',-0.740
'0:06.656',-0.745
'0:06.658',-0.740
'0:06.660',-0.745
'0:06.662',-0.745
'0:06.664',-0.720
'0:06.666',-0.720
'0:06.668',-0.730
'0:06.670',-0.725
'0:06.672',-0.755
'0:06.674',-0.730
'0:06.676',-0.750
'0:06.678',-0.730
'0:06.680',-0.725
'0:06.682',-0.730
'0:06.684',-0.725
'0:06.686',-0.730
'0:06.688',-0.740
'0:06.690',-0.745
'0:06.692',-0.750
'0:06.694',-0.750
'0:06.696',-0.735
'0:06.698',-0.720
'0:06.700',-0.715
'0:06.702',-0.705
'0:06.704',-0.745
'0:06.706',-0.740
'0:06.708',-0.745
'0:06.710',-0.745
'0:06.712',-0.750
'0:06.714',-0.740
'0:06.716',-0.725
'0:06.718',-0.720
'0:06.720',-0.735
'0:06.722',-0.735
'0:06.724',-0.765
'0:06.726',-0.770
'0:06.728',-0.760
'0:06.730',-0.770
'0:06.732',-0.770
'0:06.734',-0.760
'0:06.736',-0.765
'0:06.738',-0.760
'0:06.740',-0.760
'0:06.742',-0.750
'0:06.744',-0.760
'0:06.746',-0.765
'0:06.748',-0.745
'0:06.750',-0.760
'0:06.752',-0.745
'0:06.754',-0.750
'0:06.756',-0.745
'0:06.758',-0.765
'0:06.760',-0.750
'0:06.762',-0.755
'0:06.764',-0.745
'0:06.766',-0.750
'0:06.768',-0.740
'0:06.770',-0.720
'0:06.772',-0.750
'0:06.774',-0.735
'0:06.776',-0.745
'0:06.778',-0.735
'0:06.780',-0.745
'0:06.782',-0.750
'0:06.784',-0.740
'0:06.786',-0.730
'0:06.788',-0.730
'0:06.790',-0.755
'0:06.792',-0.750
'0:06.794',-0.750
'0:06.796',-0.740
'0:06.798',-0.735
'0:06.800',-0.745
'0:06.802',-0.755
'0:06.804',-0.750
'0:06.806',-0.755
'0:06.808',-0.765
'0:06.810',-0.760
'0:06.812',-0.720
'0:06.814',-0.740
'0:06.816',-0.730
'0:06.818',-0.725
'0:06.820',-0.745
'0:06.822',-0.730
'0:06.824',-0.735
'0:06.826',-0.760
'0:06.828',-0.740
'0:06.830',-0.740
'0:06.832',-0.740
'0:06.834',-0.715
'0:06.836',-0.710
'0:06.838',-0.755
'0:06.840',-0.755
'0:06.842',-0.770
'0:06.844',-0.740
'0:06.846',-0.745
'0:06.848',-0.745
'0:06.850',-0.745
'0:06.852',-0.755
'0:06.854',-0.745
'0:06.856',-0.755
'0:06.858',-0.745
'0:06.860',-0.730
'0:06.862',-0.750
'0:06.864',-0.770
'0:06.866',-0.755
'0:06.868',-0.750
'0:06.870',-0.760
'0:06.872',-0.760
'0:06.874',-0.750
'0:06.876',-0.740
'0:06.878',-0.745
'0:06.880',-0.745
'0:06.882',-0.735
'0:06.884',-0.750
'0:06.886',-0.755
'0:06.888',-0.750
'0:06.890',-0.735
'0:06.892',-0.765
'0:06.894',-0.760
'0:06.896',-0.750
'0:06.898',-0.710
'0:06.900',-0.720
'0:06.902',-0.735
'0:06.904',-0.695
'0:06.906',-0.720
'0:06.908',-0.715
'0:06.910',-0.705
'0:06.912',-0.700
'0:06.914',-0.700
'0:06.916',-0.705
'0:06.918',-0.705
'0:06.920',-0.700
'0:06.922',-0.705
'0:06.924',-0.690
'0:06.926',-0.670
'0:06.928',-0.685
'0:06.930',-0.675
'0:06.932',-0.680
'0:06.934',-0.665
'0:06.936',-0.670
'0:06.938',-0.685
'0:06.940',-0.675
'0:06.942',-0.645
'0:06.944',-0.660
'0:06.946',-0.685
'0:06.948',-0.670
'0:06.950',-0.675
'0:06.952',-0.685
'0:06.954',-0.690
'0:06.956',-0.705
'0:06.958',-0.720
'0:06.960',-0.730
'0:06.962',-0.750
'0:06.964',-0.720
'0:06.966',-0.725
'0:06.968',-0.740
'0:06.970',-0.730
'0:06.972',-0.725
'0:06.974',-0.745
'0:06.976',-0.760
'0:06.978',-0.770
'0:06.980',-0.755
'0:06.982',-0.770
'0:06.984',-0.760
'0:06.986',-0.760
'0:06.988',-0.745
'0:06.990',-0.755
'0:06.992',-0.770
'0:06.994',-0.760
'0:06.996',-0.760
'0:06.998',-0.760
'0:07.000',-0.765
'0:07.002',-0.765
'0:07.004',-0.770
'0:07.006',-0.785
'0:07.008',-0.780
'0:07.010',-0.730
'0:07.012',-0.750
'0:07.014',-0.750
'0:07.016',-0.750
'0:07.018',-0.765
'0:07.020',-0.780
'0:07.022',-0.750
'0:07.024',-0.760
'0:07.026',-0.780
'0:07.028',-0.770
'0:07.030',-0.775
'0:07.032',-0.780
'0:07.034',-0.795
'0:07.036',-0.825
'0:07.038',-0.860
'0:07.040',-0.890
'0:07.042',-0.940
'0:07.044',-0.955
'0:07.046',-1.000
'0:07.048',-0.980
'0:07.050',-0.990
'0:07.052',-0.955
'0:07.054',-0.835
'0:07.056',-0.670
'0:07.058',-0.530
'0:07.060',-0.375
'0:07.062',-0.170
'0:07.064',-0.030
'0:07.066',0.090
'0:07.068',0.250
'0:07.070',0.380
'0:07.072',0.435
'0:07.074',0.385
'0:07.076',0.260
'0:07.078',0.220
'0:07.080',0.105
'0:07.082',0.030
'0:07.084',-0.085
'0:07.086',-0.240
'0:07.088',-0.335
'0:07.090',-0.415
'0:07.092',-0.465
'0:07.094',-0.505
'0:07.096',-0.545
'0:07.098',-0.585
'0:07.100',-0.635
'0:07.102',-0.660
'0:07.104',-0.680
'0:07.106',-0.705
'0:07.108',-0.695
'0:07.110',-0.740
'0:07.112',-0.745
'0:07.114',-0.745
'0:07.116',-0.725
'0:07.118',-0.745
'0:07.120',-0.755
'0:07.122',-0.780
'0:07.124',-0.770
'0:07.126',-0.800
'0:07.128',-0.770
'0:07.130',-0.780
'0:07.132',-0.785
'0:07.134',-0.760
'0:07.136',-0.760
'0:07.138',-0.750
'0:07.140',-0.755
'0:07.142',-0.795
'0:07.144',-0.785
'0:07.146',-0.785
'0:07.148',-0.800
'0:07.150',-0.800
'0:07.152',-0.790
'0:07.154',-0.775
'0:07.156',-0.780
'0:07.158',-0.790
'0:07.160',-0.790
'0:07.162',-0.760
'0:07.164',-0.780
'0:07.166',-0.790
'0:07.168',-0.785
'0:07.170',-0.780
'0:07.172',-0.765
'0:07.174',-0.770
'0:07.176',-0.795
'0:07.178',-0.760
'0:07.180',-0.780
'0:07.182',-0.770
'0:07.184',-0.775
'0:07.186',-0.780
'0:07.188',-0.785
'0:07.190',-0.785
'0:07.192',-0.780
'0:07.194',-0.765
'0:07.196',-0.775
'0:07.198',-0.775
'0:07.200',-0.745
'0:07.202',-0.740
'0:07.204',-0.785
'0:07.206',-0.775
'0:07.208',-0.775
'0:07.210',-0.740
'0:07.212',-0.785
'0:07.214',-0.770
'0:07.216',-0.765
'0:07.218',-0.760
'0:07.220',-0.760
'0:07.222',-0.790
'0:07.224',-0.770
'0:07.226',-0.780
'0:07.228',-0.770
'0:07.230',-0.780
'0:07.232',-0.755
'0:07.234',-0.770
'0:07.236',-0.790
'0:07.238',-0.745
'0:07.240',-0.740
'0:07.242',-0.745
'0:07.244',-0.750
'0:07.246',-0.725
'0:07.248',-0.720
'0:07.250',-0.730
'0:07.252',-0.735
'0:07.254',-0.720
'0:07.256',-0.725
'0:07.258',-0.710
'0:07.260',-0.710
'0:07.262',-0.715
'0:07.264',-0.710
'0:07.266',-0.700
'0:07.268',-0.695
'0:07.270',-0.700
'0:07.272',-0.675
'0:07.274',-0.680
'0:07.276',-0.670
'0:07.278',-0.660
'0:07.280',-0.660
'0:07.282',-0.665
'0:07.284',-0.660
'0:07.286',-0.650
'0:07.288',-0.665
'0:07.290',-0.650
'0:07.292',-0.640
'0:07.294',-0.645
'0:07.296',-0.620
'0:07.298',-0.630
'0:07.300',-0.615
'0:07.302',-0.625
'0:07.304',-0.605
'0:07.306',-0.620
'0:07.308',-0.610
'0:07.310',-0.625
'0:07.312',-0.600
'0:07.314',-0.590
'0:07.316',-0.615
'0:07.318',-0.595
'0:07.320',-0.600
'0:07.322',-0.615
'0:07.324',-0.610
'0:07.326',-0.635
'0:07.328',-0.600
'0:07.330',-0.615
'0:07.332',-0.625
'0:07.334',-0.625
'0:07.336',-0.620
'0:07.338',-0.635
'0:07.340',-0.665
'0:07.342',-0.655
'0:07.344',-0.650
'0:07.346',-0.660
'0:07.348',-0.690
'0:07.350',-0.690
'0:07.352',-0.675
'0:07.354',-0.695
'0:07.356',-0.730
'0:07.358',-0.690
'0:07.360',-0.675
'0:07.362',-0.715
'0:07.364',-0.720
'0:07.366',-0.730
'0:07.368',-0.720
'0:07.370',-0.730
'0:07.372',-0.745
'0:07.374',-0.745
'0:07.376',-0.750
'0:07.378',-0.755
'0:07.380',-0.770
'0:07.382',-0.755
'0:07.384',-0.755
'0:07.386',-0.760
'0:07.388',-0.795
'0:07.390',-0.770
'0:07.392',-0.775
'0:07.394',-0.760
'0:07.396',-0.745
'0:07.398',-0.765
'0:07.400',-0.795
'0:07.402',-0.775
'0:07.404',-0.775
'0:07.406',-0.760
'0:07.408',-0.780
'0:07.410',-0.770
'0:07.412',-0.785
'0:07.414',-0.780
'0:07.416',-0.780
'0:07.418',-0.770
'0:07.420',-0.755
'0:07.422',-0.775
'0:07.424',-0.785
'0:07.426',-0.780
'0:07.428',-0.765
'0:07.430',-0.780
'0:07.432',-0.765
'0:07.434',-0.770
'0:07.436',-0.765
'0:07.438',-0.785
'0:07.440',-0.765
'0:07.442',-0.775
'0:07.444',-0.775
'0:07.446',-0.770
'0:07.448',-0.765
'0:07.450',-0.735
'0:07.452',-0.770
'0:07.454',-0.770
'0:07.456',-0.765
'0:07.458',-0.780
'0:07.460',-0.760
'0:07.462',-0.760
'0:07.464',-0.790
'0:07.466',-0.780
'0:07.468',-0.760
'0:07.470',-0.770
'0:07.472',-0.775
'0:07.474',-0.770
'0:07.476',-0.765
'0:07.478',-0.780
'0:07.480',-0.790
'0:07.482',-0.795
'0:07.484',-0.765
'0:07.486',-0.775
'0:07.488',-0.785
'0:07.490',-0.780
'0:07.492',-0.785
'0:07.494',-0.785
'0:07.496',-0.750
'0:07.498',-0.735
'0:07.500',-0.760
'0:07.502',-0.755
'0:07.504',-0.760
'0:07.506',-0.765
'0:07.508',-0.785
'0:07.510',-0.770
'0:07.512',-0.775
'0:07.514',-0.765
'0:07.516',-0.790
'0:07.518',-0.775
'0:07.520',-0.755
'0:07.522',-0.755
'0:07.524',-0.780
'0:07.526',-0.765
'0:07.528',-0.755
'0:07.530',-0.765
'0:07.532',-0.745
'0:07.534',-0.770
'0:07.536',-0.785
'0:07.538',-0.790
'0:07.540',-0.775
'0:07.542',-0.790
'0:07.544',-0.780
'0:07.546',-0.770
'0:07.548',-0.790
'0:07.550',-0.770
'0:07.552',-0.780
'0:07.554',-0.780
'0:07.556',-0.790
'0:07.558',-0.755
'0:07.560',-0.760
'0:07.562',-0.755
'0:07.564',-0.770
'0:07.566',-0.785
'0:07.568',-0.775
'0:07.570',-0.770
'0:07.572',-0.790
'0:07.574',-0.775
'0:07.576',-0.775
'0:07.578',-0.795
'0:07.580',-0.800
'0:07.582',-0.770
'0:07.584',-0.780
'0:07.586',-0.795
'0:07.588',-0.775
'0:07.590',-0.775
'0:07.592',-0.780
'0:07.594',-0.775
'0:07.596',-0.805
'0:07.598',-0.785
'0:07.600',-0.775
'0:07.602',-0.785
'0:07.604',-0.780
'0:07.606',-0.780
'0:07.608',-0.790
'0:07.610',-0.795
'0:07.612',-0.785
'0:07.614',-0.790
'0:07.616',-0.810
'0:07.618',-0.790
'0:07.620',-0.800
'0:07.622',-0.780
'0:07.624',-0.770
'0:07.626',-0.780
'0:07.628',-0.770
'0:07.630',-0.785
'0:07.632',-0.770
'0:07.634',-0.790
'0:07.636',-0.785
'0:07.638',-0.775
'0:07.640',-0.780
'0:07.642',-0.805
'0:07.644',-0.780
'0:07.646',-0.780
'0:07.648',-0.800
'0:07.650',-0.785
'0:07.652',-0.805
'0:07.654',-0.805
'0:07.656',-0.770
'0:07.658',-0.815
'0:07.660',-0.785
'0:07.662',-0.780
'0:07.664',-0.790
'0:07.666',-0.810
'0:07.668',-0.805
'0:07.670',-0.795
'0:07.672',-0.795
'0:07.674',-0.790
'0:07.676',-0.785
'0:07.678',-0.795
'0:07.680',-0.785
'0:07.682',-0.775
'0:07.684',-0.790
'0:07.686',-0.800
'0:07.688',-0.790
'0:07.690',-0.780
'0:07.692',-0.780
'0:07.694',-0.785
'0:07.696',-0.770
'0:07.698',-0.775
'0:07.700',-0.775
'0:07.702',-0.785
'0:07.704',-0.830
'0:07.706',-0.795
'0:07.708',-0.790
'0:07.710',-0.760
'0:07.712',-0.780
'0:07.714',-0.770
'0:07.716',-0.785
'0:07.718',-0.770
'0:07.720',-0.750
'0:07.722',-0.765
'0:07.724',-0.760
'0:07.726',-0.755
'0:07.728',-0.755
'0:07.730',-0.770
'0:07.732',-0.740
'0:07.734',-0.750
'0:07.736',-0.750
'0:07.738',-0.715
'0:07.740',-0.720
'0:07.742',-0.685
'0:07.744',-0.720
'0:07.746',-0.725
'0:07.748',-0.715
'0:07.750',-0.710
'0:07.752',-0.720
'0:07.754',-0.720
'0:07.756',-0.710
'0:07.758',-0.725
'0:07.760',-0.725
'0:07.762',-0.705
'0:07.764',-0.720
'0:07.766',-0.725
'0:07.768',-0.745
'0:07.770',-0.745
'0:07.772',-0.755
'0:07.774',-0.785
'0:07.776',-0.790
'0:07.778',-0.805
'0:07.780',-0.770
'0:07.782',-0.780
'0:07.784',-0.820
'0:07.786',-0.775
'0:07.788',-0.780
'0:07.790',-0.800
'0:07.792',-0.800
'0:07.794',-0.790
'0:07.796',-0.805
'0:07.798',-0.805
'0:07.800',-0.810
'0:07.802',-0.810
'0:07.804',-0.815
'0:07.806',-0.820
'0:07.808',-0.815
'0:07.810',-0.810
'0:07.812',-0.825
'0:07.814',-0.815
'0:07.816',-0.835
'0:07.818',-0.800
'0:07.820',-0.805
'0:07.822',-0.815
'0:07.824',-0.815
'0:07.826',-0.825
'0:07.828',-0.820
'0:07.830',-0.835
'0:07.832',-0.825
'0:07.834',-0.820
'0:07.836',-0.800
'0:07.838',-0.825
'0:07.840',-0.815
'0:07.842',-0.825
'0:07.844',-0.835
'0:07.846',-0.830
'0:07.848',-0.850
'0:07.850',-0.885
'0:07.852',-0.915
'0:07.854',-0.930
'0:07.856',-0.970
'0:07.858',-1.030
'0:07.860',-1.050
'0:07.862',-1.020
'0:07.864',-1.010
'0:07.866',-0.955
'0:07.868',-0.850
'0:07.870',-0.700
'0:07.872',-0.550
'0:07.874',-0.380
'0:07.876',-0.220
'0:07.878',-0.050
'0:07.880',0.105
'0:07.882',0.255
'0:07.884',0.365
'0:07.886',0.345
'0:07.888',0.295
'0:07.890',0.230
'0:07.892',0.160
'0:07.894',0.020
'0:07.896',-0.065
'0:07.898',-0.170
'0:07.900',-0.310
'0:07.902',-0.435
'0:07.904',-0.500
'0:07.906',-0.520
'0:07.908',-0.565
'0:07.910',-0.630
'0:07.912',-0.650
'0:07.914',-0.675
'0:07.916',-0.710
'0:07.918',-0.710
'0:07.920',-0.745
'0:07.922',-0.770
'0:07.924',-0.775
'0:07.926',-0.795
'0:07.928',-0.810
'0:07.930',-0.800
'0:07.932',-0.795
'0:07.934',-0.805
'0:07.936',-0.795
'0:07.938',-0.810
'0:07.940',-0.820
'0:07.942',-0.820
'0:07.944',-0.815
'0:07.946',-0.815
'0:07.948',-0.825
'0:07.950',-0.815
'0:07.952',-0.810
'0:07.954',-0.830
'0:07.956',-0.830
'0:07.958',-0.815
'0:07.960',-0.830
'0:07.962',-0.835
'0:07.964',-0.820
'0:07.966',-0.845
'0:07.968',-0.830
'0:07.970',-0.825
'0:07.972',-0.805
'0:07.974',-0.815
'0:07.976',-0.815
'0:07.978',-0.815
'0:07.980',-0.825
'0:07.982',-0.815
'0:07.984',-0.805
'0:07.986',-0.800
'0:07.988',-0.810
'0:07.990',-0.810
'0:07.992',-0.805
'0:07.994',-0.825
'0:07.996',-0.820
'0:07.998',-0.825
'0:08.000',-0.805
'0:08.002',-0.815
'0:08.004',-0.815
'0:08.006',-0.805
'0:08.008',-0.815
'0:08.010',-0.805
'0:08.012',-0.820
'0:08.014',-0.815
'0:08.016',-0.805
'0:08.018',-0.800
'0:08.020',-0.805
'0:08.022',-0.800
'0:08.024',-0.815
'0:08.026',-0.805
'0:08.028',-0.775
'0:08.030',-0.810
'0:08.032',-0.825
'0:08.034',-0.815
'0:08.036',-0.800
'0:08.038',-0.795
'0:08.040',-0.790
'0:08.042',-0.765
'0:08.044',-0.780
'0:08.046',-0.760
'0:08.048',-0.800
'0:08.050',-0.795
'0:08.052',-0.785
'0:08.054',-0.770
'0:08.056',-0.775
'0:08.058',-0.785
'0:08.060',-0.765
'0:08.062',-0.770
'0:08.064',-0.755
'0:08.066',-0.770
'0:08.068',-0.740
'0:08.070',-0.735
'0:08.072',-0.750
'0:08.074',-0.740
'0:08.076',-0.745
'0:08.078',-0.740
'0:08.080',-0.730
'0:08.082',-0.720
'0:08.084',-0.710
'0:08.086',-0.690
'0:08.088',-0.705
'0:08.090',-0.710
'0:08.092',-0.715
'0:08.094',-0.675
'0:08.096',-0.685
'0:08.098',-0.695
'0:08.100',-0.680
'0:08.102',-0.675
'0:08.104',-0.675
'0:08.106',-0.645
'0:08.108',-0.640
'0:08.110',-0.650
'0:08.112',-0.625
'0:08.114',-0.635
'0:08.116',-0.655
'0:08.118',-0.640
'0:08.120',-0.625
'0:08.122',-0.660
'0:08.124',-0.655
'0:08.126',-0.640
'0:08.128',-0.645
'0:08.130',-0.650
'0:08.132',-0.615
'0:08.134',-0.610
'0:08.136',-0.650
'0:08.138',-0.640
'0:08.140',-0.635
'0:08.142',-0.625
'0:08.144',-0.645
'0:08.146',-0.645
'0:08.148',-0.640
'0:08.150',-0.665
'0:08.152',-0.675
'0:08.154',-0.675
'0:08.156',-0.695
'0:08.158',-0.685
'0:08.160',-0.690
'0:08.162',-0.685
'0:08.164',-0.685
'0:08.166',-0.690
'0:08.168',-0.705
'0:08.170',-0.720
'0:08.172',-0.730
'0:08.174',-0.710
'0:08.176',-0.740
'0:08.178',-0.760
'0:08.180',-0.750
'0:08.182',-0.735
'0:08.184',-0.765
'0:08.186',-0.775
'0:08.188',-0.765
'0:08.190',-0.770
'0:08.192',-0.775
'0:08.194',-0.770
'0:08.196',-0.780
'0:08.198',-0.785
'0:08.200',-0.785
'0:08.202',-0.770
'0:08.204',-0.760
'0:08.206',-0.800
'0:08.208',-0.785
'0:08.210',-0.765
'0:08.212',-0.790
'0:08.214',-0.780
'0:08.216',-0.795
'0:08.218',-0.780
'0:08.220',-0.775
'0:08.222',-0.790
'0:08.224',-0.780
'0:08.226',-0.775
'0:08.228',-0.780
'0:08.230',-0.770
'0:08.232',-0.765
'0:08.234',-0.785
'0:08.236',-0.795
'0:08.238',-0.785
'0:08.240',-0.780
'0:08.242',-0.795
'0:08.244',-0.775
'0:08.246',-0.765
'0:08.248',-0.750
'0:08.250',-0.785
'0:08.252',-0.785
'0:08.254',-0.780
'0:08.256',-0.805
'0:08.258',-0.790
'0:08.260',-0.790
'0:08.262',-0.785
'0:08.264',-0.785
'0:08.266',-0.785
'0:08.268',-0.805
'0:08.270',-0.775
'0:08.272',-0.785
'0:08.274',-0.790
'0:08.276',-0.790
'0:08.278',-0.785
'0:08.280',-0.795
'0:08.282',-0.790
'0:08.284',-0.785
'0:08.286',-0.785
'0:08.288',-0.805
'0:08.290',-0.785
'0:08.292',-0.795
'0:08.294',-0.765
'0:08.296',-0.775
'0:08.298',-0.785
'0:08.300',-0.795
'0:08.302',-0.775
'0:08.304',-0.770
'0:08.306',-0.785
'0:08.308',-0.795
'0:08.310',-0.795
'0:08.312',-0.795
'0:08.314',-0.800
'0:08.316',-0.790
'0:08.318',-0.780
'0:08.320',-0.795
'0:08.322',-0.810
'0:08.324',-0.770
'0:08.326',-0.780
'0:08.328',-0.775
'0:08.330',-0.780
'0:08.332',-0.795
'0:08.334',-0.795
'0:08.336',-0.780
'0:08.338',-0.775
'0:08.340',-0.785
'0:08.342',-0.780
'0:08.344',-0.780
'0:08.346',-0.785
'0:08.348',-0.775
'0:08.350',-0.800
'0:08.352',-0.795
'0:08.354',-0.785
'0:08.356',-0.775
'0:08.358',-0.765
'0:08.360',-0.780
'0:08.362',-0.775
'0:08.364',-0.790
'0:08.366',-0.780
'0:08.368',-0.795
'0:08.370',-0.785
'0:08.372',-0.775
'0:08.374',-0.790
'0:08.376',-0.790
'0:08.378',-0.800
'0:08.380',-0.800
'0:08.382',-0.795
'0:08.384',-0.790
'0:08.386',-0.785
'0:08.388',-0.800
'0:08.390',-0.795
'0:08.392',-0.780
'0:08.394',-0.770
'0:08.396',-0.770
'0:08.398',-0.790
'0:08.400',-0.795
'0:08.402',-0.775
'0:08.404',-0.780
'0:08.406',-0.770
'0:08.408',-0.770
'0:08.410',-0.790
'0:08.412',-0.765
'0:08.414',-0.780
'0:08.416',-0.800
'0:08.418',-0.790
'0:08.420',-0.780
'0:08.422',-0.800
'0:08.424',-0.800
'0:08.426',-0.795
'0:08.428',-0.800
'0:08.430',-0.815
'0:08.432',-0.775
'0:08.434',-0.775
'0:08.436',-0.765
'0:08.438',-0.795
'0:08.440',-0.785
'0:08.442',-0.770
'0:08.444',-0.790
'0:08.446',-0.785
'0:08.448',-0.785
'0:08.450',-0.775
'0:08.452',-0.800
'0:08.454',-0.770
'0:08.456',-0.795
'0:08.458',-0.795
'0:08.460',-0.775
'0:08.462',-0.785
'0:08.464',-0.785
'0:08.466',-0.785
'0:08.468',-0.790
'0:08.470',-0.800
'0:08.472',-0.785
'0:08.474',-0.775
'0:08.476',-0.800
'0:08.478',-0.800
'0:08.480',-0.795
'0:08.482',-0.795
'0:08.484',-0.780
'0:08.486',-0.795
'0:08.488',-0.785
'0:08.490',-0.810
'0:08.492',-0.795
'0:08.494',-0.785
'0:08.496',-0.795
'0:08.498',-0.785
'0:08.500',-0.800
'0:08.502',-0.780
'0:08.504',-0.800
'0:08.506',-0.805
'0:08.508',-0.795
'0:08.510',-0.770
'0:08.512',-0.790
'0:08.514',-0.785
'0:08.516',-0.790
'0:08.518',-0.775
'0:08.520',-0.810
'0:08.522',-0.800
'0:08.524',-0.790
'0:08.526',-0.770
'0:08.528',-0.770
'0:08.530',-0.790
'0:08.532',-0.770
'0:08.534',-0.785
'0:08.536',-0.785
'0:08.538',-0.770
'0:08.540',-0.780
'0:08.542',-0.770
'0:08.544',-0.740
'0:08.546',-0.750
'0:08.548',-0.760
'0:08.550',-0.790
'0:08.552',-0.760
'0:08.554',-0.760
'0:08.556',-0.740
'0:08.558',-0.740
'0:08.560',-0.745
'0:08.562',-0.720
'0:08.564',-0.715
'0:08.566',-0.715
'0:08.568',-0.710
'0:08.570',-0.720
'0:08.572',-0.715
'0:08.574',-0.710
'0:08.576',-0.710
'0:08.578',-0.745
'0:08.580',-0.750
'0:08.582',-0.720
'0:08.584',-0.715
'0:08.586',-0.710
'0:08.588',-0.720
'0:08.590',-0.740
'0:08.592',-0.755
'0:08.594',-0.770
'0:08.596',-0.770
'0:08.598',-0.760
'0:08.600',-0.785
'0:08.602',-0.780
'0:08.604',-0.795
'0:08.606',-0.795
'0:08.608',-0.790
'0:08.610',-0.800
'0:08.612',-0.765
'0:08.614',-0.775
'0:08.616',-0.785
'0:08.618',-0.770
'0:08.620',-0.795
'0:08.622',-0.785
'0:08.624',-0.785
'0:08.626',-0.785
'0:08.628',-0.765
'0:08.630',-0.785
'0:08.632',-0.815
'0:08.634',-0.805
'0:08.636',-0.805
'0:08.638',-0.800
'0:08.640',-0.805
'0:08.642',-0.785
'0:08.644',-0.805
'0:08.646',-0.805
'0:08.648',-0.820
'0:08.650',-0.805
'0:08.652',-0.835
'0:08.654',-0.790
'0:08.656',-0.795
'0:08.658',-0.790
'0:08.660',-0.790
'0:08.662',-0.795
'0:08.664',-0.790
'0:08.666',-0.795
'0:08.668',-0.815
'0:08.670',-0.835
'0:08.672',-0.875
'0:08.674',-0.895
'0:08.676',-0.930
'0:08.678',-0.970
'0:08.680',-1.020
'0:08.682',-1.015
'0:08.684',-1.020
'0:08.686',-0.970
'0:08.688',-0.880
'0:08.690',-0.795
'0:08.692',-0.640
'0:08.694',-0.510
'0:08.696',-0.340
'0:08.698',-0.155
'0:08.700',-0.010
'0:08.702',0.130
'0:08.704',0.285
'0:08.706',0.385
'0:08.708',0.380
'0:08.710',0.325
'0:08.712',0.255
'0:08.714',0.160
'0:08.716',0.055
'0:08.718',-0.015
'0:08.720',-0.145
'0:08.722',-0.275
'0:08.724',-0.385
'0:08.726',-0.440
'0:08.728',-0.495
'0:08.730',-0.530
'0:08.732',-0.565
'0:08.734',-0.605
'0:08.736',-0.640
'0:08.738',-0.665
'0:08.740',-0.710
'0:08.742',-0.730
'0:08.744',-0.770
'0:08.746',-0.725
'0:08.748',-0.725
'0:08.750',-0.745
'0:08.752',-0.765
'0:08.754',-0.770
'0:08.756',-0.765
'0:08.758',-0.775
'0:08.760',-0.770
'0:08.762',-0.755
'0:08.764',-0.805
'0:08.766',-0.805
'0:08.768',-0.795
'0:08.770',-0.800
'0:08.772',-0.790
'0:08.774',-0.795
'0:08.776',-0.810
'0:08.778',-0.775
'0:08.780',-0.780
'0:08.782',-0.790
'0:08.784',-0.805
'0:08.786',-0.790
'0:08.788',-0.800
'0:08.790',-0.810
'0:08.792',-0.780
'0:08.794',-0.800
'0:08.796',-0.805
'0:08.798',-0.785
'0:08.800',-0.795
'0:08.802',-0.790
'0:08.804',-0.810
'0:08.806',-0.800
'0:08.808',-0.770
'0:08.810',-0.770
'0:08.812',-0.775
'0:08.814',-0.775
'0:08.816',-0.785
'0:08.818',-0.785
'0:08.820',-0.780
'0:08.822',-0.765
'0:08.824',-0.775
'0:08.826',-0.775
'0:08.828',-0.770
'0:08.830',-0.820
'0:08.832',-0.775
'0:08.834',-0.800
'0:08.836',-0.775
'0:08.838',-0.780
'0:08.840',-0.770
'0:08.842',-0.775
'0:08.844',-0.785
'0:08.846',-0.775
'0:08.848',-0.785
'0:08.850',-0.745
'0:08.852',-0.770
'0:08.854',-0.760
'0:08.856',-0.740
'0:08.858',-0.750
'0:08.860',-0.750
'0:08.862',-0.750
'0:08.864',-0.735
'0:08.866',-0.765
'0:08.868',-0.740
'0:08.870',-0.745
'0:08.872',-0.750
'0:08.874',-0.760
'0:08.876',-0.740
'0:08.878',-0.715
'0:08.880',-0.735
'0:08.882',-0.705
'0:08.884',-0.725
'0:08.886',-0.725
'0:08.888',-0.730
'0:08.890',-0.725
'0:08.892',-0.725
'0:08.894',-0.715
'0:08.896',-0.710
'0:08.898',-0.695
'0:08.900',-0.690
'0:08.902',-0.705
'0:08.904',-0.695
'0:08.906',-0.690
'0:08.908',-0.680
'0:08.910',-0.665
'0:08.912',-0.665
'0:08.914',-0.665
'0:08.916',-0.665
'0:08.918',-0.655
'0:08.920',-0.640
'0:08.922',-0.630
'0:08.924',-0.590
'0:08.926',-0.620
'0:08.928',-0.635
'0:08.930',-0.620
'0:08.932',-0.605
'0:08.934',-0.600
'0:08.936',-0.605
'0:08.938',-0.600
'0:08.940',-0.605
'0:08.942',-0.580
'0:08.944',-0.610
'0:08.946',-0.580
'0:08.948',-0.595
'0:08.950',-0.575
'0:08.952',-0.605
'0:08.954',-0.570
'0:08.956',-0.565
'0:08.958',-0.585
'0:08.960',-0.580
'0:08.962',-0.575
'0:08.964',-0.595
'0:08.966',-0.600
'0:08.968',-0.595
'0:08.970',-0.595
'0:08.972',-0.605
'0:08.974',-0.615
'0:08.976',-0.615
'0:08.978',-0.620
'0:08.980',-0.645
'0:08.982',-0.635
'0:08.984',-0.655
'0:08.986',-0.670
'0:08.988',-0.665
'0:08.990',-0.670
'0:08.992',-0.675
'0:08.994',-0.675
'0:08.996',-0.695
'0:08.998',-0.700
'0:09.000',-0.690
'0:09.002',-0.690
'0:09.004',-0.715
'0:09.006',-0.720
'0:09.008',-0.700
'0:09.010',-0.695
'0:09.012',-0.725
'0:09.014',-0.720
'0:09.016',-0.730
'0:09.018',-0.755
'0:09.020',-0.705
'0:09.022',-0.725
'0:09.024',-0.745
'0:09.026',-0.740
'0:09.028',-0.715
'0:09.030',-0.730
'0:09.032',-0.720
'0:09.034',-0.740
'0:09.036',-0.750
'0:09.038',-0.740
'0:09.040',-0.755
'0:09.042',-0.710
'0:09.044',-0.720
'0:09.046',-0.725
'0:09.048',-0.745
'0:09.050',-0.755
'0:09.052',-0.730
'0:09.054',-0.740
'0:09.056',-0.720
'0:09.058',-0.730
'0:09.060',-0.740
'0:09.062',-0.740
'0:09.064',-0.730
'0:09.066',-0.755
'0:09.068',-0.745
'0:09.070',-0.735
'0:09.072',-0.730
'0:09.074',-0.750
'0:09.076',-0.740
'0:09.078',-0.720
'0:09.080',-0.720
'0:09.082',-0.735
'0:09.084',-0.740
'0:09.086',-0.740
'0:09.088',-0.720
'0:09.090',-0.730
'0:09.092',-0.705
'0:09.094',-0.740
'0:09.096',-0.720
'0:09.098',-0.730
'0:09.100',-0.725
'0:09.102',-0.735
'0:09.104',-0.750
'0:09.106',-0.740
'0:09.108',-0.740
'0:09.110',-0.740
'0:09.112',-0.745
'0:09.114',-0.735
'0:09.116',-0.750
'0:09.118',-0.730
'0:09.120',-0.735
'0:09.122',-0.725
'0:09.124',-0.725
'0:09.126',-0.735
'0:09.128',-0.735
'0:09.130',-0.730
'0:09.132',-0.745
'0:09.134',-0.730
'0:09.136',-0.740
'0:09.138',-0.715
'0:09.140',-0.735
'0:09.142',-0.735
'0:09.144',-0.750
'0:09.146',-0.740
'0:09.148',-0.735
'0:09.150',-0.750
'0:09.152',-0.735
'0:09.154',-0.755
'0:09.156',-0.745
'0:09.158',-0.720
'0:09.160',-0.735
'0:09.162',-0.730
'0:09.164',-0.740
'0:09.166',-0.740
'0:09.168',-0.710
'0:09.170',-0.700
'0:09.172',-0.720
'0:09.174',-0.720
'0:09.176',-0.740
'0:09.178',-0.730
'0:09.180',-0.745
'0:09.182',-0.720
'0:09.184',-0.720
'0:09.186',-0.710
'0:09.188',-0.725
'0:09.190',-0.735
'0:09.192',-0.750
'0:09.194',-0.745
'0:09.196',-0.765
'0:09.198',-0.745
'0:09.200',-0.710
'0:09.202',-0.735
'0:09.204',-0.710
'0:09.206',-0.730
'0:09.208',-0.765
'0:09.210',-0.745
'0:09.212',-0.730
'0:09.214',-0.740
'0:09.216',-0.730
'0:09.218',-0.720
'0:09.220',-0.745
'0:09.222',-0.745
'0:09.224',-0.725
'0:09.226',-0.700
'0:09.228',-0.765
'0:09.230',-0.745
'0:09.232',-0.745
'0:09.234',-0.715
'0:09.236',-0.720
'0:09.238',-0.745
'0:09.240',-0.735
'0:09.242',-0.725
'0:09.244',-0.720
'0:09.246',-0.715
'0:09.248',-0.710
'0:09.250',-0.750
'0:09.252',-0.730
'0:09.254',-0.735
'0:09.256',-0.760
'0:09.258',-0.725
'0:09.260',-0.735
'0:09.262',-0.730
'0:09.264',-0.725
'0:09.266',-0.745
'0:09.268',-0.740
'0:09.270',-0.730
'0:09.272',-0.725
'0:09.274',-0.735
'0:09.276',-0.740
'0:09.278',-0.740
'0:09.280',-0.725
'0:09.282',-0.735
'0:09.284',-0.715
'0:09.286',-0.715
'0:09.288',-0.725
'0:09.290',-0.755
'0:09.292',-0.735
'0:09.294',-0.740
'0:09.296',-0.765
'0:09.298',-0.740
'0:09.300',-0.740
'0:09.302',-0.725
'0:09.304',-0.720
'0:09.306',-0.720
'0:09.308',-0.725
'0:09.310',-0.740
'0:09.312',-0.735
'0:09.314',-0.750
'0:09.316',-0.740
'0:09.318',-0.740
'0:09.320',-0.730
'0:09.322',-0.720
'0:09.324',-0.745
'0:09.326',-0.730
'0:09.328',-0.730
'0:09.330',-0.750
'0:09.332',-0.710
'0:09.334',-0.725
'0:09.336',-0.715
'0:09.338',-0.705
'0:09.340',-0.720
'0:09.342',-0.720
'0:09.344',-0.705
'0:09.346',-0.680
'0:09.348',-0.705
'0:09.350',-0.715
'0:09.352',-0.665
'0:09.354',-0.715
'0:09.356',-0.705
'0:09.358',-0.705
'0:09.360',-0.705
'0:09.362',-0.690
'0:09.364',-0.660
'0:09.366',-0.680
'0:09.368',-0.680
'0:09.370',-0.665
'0:09.372',-0.660
'0:09.374',-0.660
'0:09.376',-0.640
'0:09.378',-0.645
'0:09.380',-0.650
'0:09.382',-0.645
'0:09.384',-0.665
'0:09.386',-0.660
'0:09.388',-0.660
'0:09.390',-0.645
'0:09.392',-0.685
'0:09.394',-0.680
'0:09.396',-0.660
'0:09.398',-0.675
'0:09.400',-0.675
'0:09.402',-0.680
'0:09.404',-0.695
'0:09.406',-0.710
'0:09.408',-0.715
'0:09.410',-0.705
'0:09.412',-0.735
'0:09.414',-0.700
'0:09.416',-0.735
'0:09.418',-0.715
'0:09.420',-0.710
'0:09.422',-0.730
'0:09.424',-0.730
'0:09.426',-0.720
'0:09.428',-0.715
'0:09.430',-0.735
'0:09.432',-0.730
'0:09.434',-0.745
'0:09.436',-0.735
'0:09.438',-0.730
'0:09.440',-0.745
'0:09.442',-0.725
'0:09.444',-0.745
'0:09.446',-0.725
'0:09.448',-0.745
'0:09.450',-0.720
'0:09.452',-0.745
'0:09.454',-0.750
'0:09.456',-0.710
'0:09.458',-0.730
'0:09.460',-0.745
'0:09.462',-0.730
'0:09.464',-0.725
'0:09.466',-0.735
'0:09.468',-0.730
'0:09.470',-0.735
'0:09.472',-0.750
'0:09.474',-0.760
'0:09.476',-0.740
'0:09.478',-0.760
'0:09.480',-0.795
'0:09.482',-0.815
'0:09.484',-0.845
'0:09.486',-0.885
'0:09.488',-0.915
'0:09.490',-0.980
'0:09.492',-0.960
'0:09.494',-0.925
'0:09.496',-0.860
'0:09.498',-0.765
'0:09.500',-0.625
'0:09.502',-0.490
'0:09.504',-0.340
'0:09.506',-0.205
'0:09.508',-0.045
'0:09.510',0.090
'0:09.512',0.230
'0:09.514',0.370
'0:09.516',0.390
'0:09.518',0.335
'0:09.520',0.275
'0:09.522',0.145
'0:09.524',0.080
'0:09.526',-0.025
'0:09.528',-0.085
'0:09.530',-0.250
'0:09.532',-0.370
'0:09.534',-0.460
'0:09.536',-0.475
'0:09.538',-0.510
'0:09.540',-0.550
'0:09.542',-0.605
'0:09.544',-0.600
'0:09.546',-0.615
'0:09.548',-0.660
'0:09.550',-0.675
'0:09.552',-0.675
'0:09.554',-0.665
'0:09.556',-0.660
'0:09.558',-0.695
'0:09.560',-0.680
'0:09.562',-0.705
'0:09.564',-0.700
'0:09.566',-0.700
'0:09.568',-0.725
'0:09.570',-0.730
'0:09.572',-0.695
'0:09.574',-0.725
'0:09.576',-0.730
'0:09.578',-0.730
'0:09.580',-0.740
'0:09.582',-0.715
'0:09.584',-0.715
'0:09.586',-0.740
'0:09.588',-0.730
'0:09.590',-0.740
'0:09.592',-0.715
'0:09.594',-0.725
'0:09.596',-0.740
'0:09.598',-0.715
'0:09.600',-0.715
'0:09.602',-0.725
'0:09.604',-0.740
'0:09.606',-0.715
'0:09.608',-0.740
'0:09.610',-0.705
'0:09.612',-0.715
'0:09.614',-0.720
'0:09.616',-0.725
'0:09.618',-0.720
'0:09.620',-0.720
'0:09.622',-0.725
'0:09.624',-0.705
'0:09.626',-0.705
'0:09.628',-0.720
'0:09.630',-0.710
'0:09.632',-0.720
'0:09.634',-0.725
'0:09.636',-0.705
'0:09.638',-0.690
'0:09.640',-0.695
'0:09.642',-0.705
'0:09.644',-0.730
'0:09.646',-0.700
'0:09.648',-0.720
'0:09.650',-0.725
'0:09.652',-0.730
'0:09.654',-0.705
'0:09.656',-0.715
'0:09.658',-0.680
'0:09.660',-0.695
'0:09.662',-0.680
'0:09.664',-0.675
'0:09.666',-0.690
'0:09.668',-0.690
'0:09.670',-0.685
'0:09.672',-0.710
'0:09.674',-0.670
'0:09.676',-0.675
'0:09.678',-0.700
'0:09.680',-0.690
'0:09.682',-0.670
'0:09.684',-0.695
'0:09.686',-0.665
'0:09.688',-0.680
'0:09.690',-0.675
'0:09.692',-0.680
'0:09.694',-0.670
'0:09.696',-0.650
'0:09.698',-0.655
'0:09.700',-0.645
'0:09.702',-0.615
'0:09.704',-0.650
'0:09.706',-0.650
'0:09.708',-0.640
'0:09.710',-0.670
'0:09.712',-0.600
'0:09.714',-0.640
'0:09.716',-0.590
'0:09.718',-0.580
'0:09.720',-0.590
'0:09.722',-0.610
'0:09.724',-0.595
'0:09.726',-0.575
'0:09.728',-0.580
'0:09.730',-0.555
'0:09.732',-0.555
'0:09.734',-0.555
'0:09.736',-0.565
'0:09.738',-0.560
'0:09.740',-0.550
'0:09.742',-0.545
'0:09.744',-0.540
'0:09.746',-0.550
'0:09.748',-0.545
'0:09.750',-0.535
'0:09.752',-0.505
'0:09.754',-0.520
'0:09.756',-0.525
'0:09.758',-0.520
'0:09.760',-0.525
'0:09.762',-0.525
'0:09.764',-0.525
'0:09.766',-0.515
'0:09.768',-0.525
'0:09.770',-0.535
'0:09.772',-0.545
'0:09.774',-0.550
'0:09.776',-0.540
'0:09.778',-0.545
'0:09.780',-0.530
'0:09.782',-0.550
'0:09.784',-0.540
'0:09.786',-0.560
'0:09.788',-0.580
'0:09.790',-0.615
'0:09.792',-0.560
'0:09.794',-0.585
'0:09.796',-0.565
'0:09.798',-0.595
'0:09.800',-0.595
'0:09.802',-0.605
'0:09.804',-0.615
'0:09.806',-0.625
'0:09.808',-0.605
'0:09.810',-0.640
'0:09.812',-0.635
'0:09.814',-0.655
'0:09.816',-0.615
'0:09.818',-0.635
'0:09.820',-0.660
'0:09.822',-0.650
'0:09.824',-0.675
'0:09.826',-0.665
'0:09.828',-0.655
'0:09.830',-0.660
'0:09.832',-0.660
'0:09.834',-0.670
'0:09.836',-0.655
'0:09.838',-0.655
'0:09.840',-0.640
'0:09.842',-0.655
'0:09.844',-0.655
'0:09.846',-0.685
'0:09.848',-0.680
'0:09.850',-0.670
'0:09.852',-0.680
'0:09.854',-0.705
'0:09.856',-0.670
'0:09.858',-0.640
'0:09.860',-0.655
'0:09.862',-0.645
'0:09.864',-0.655
'0:09.866',-0.655
'0:09.868',-0.665
'0:09.870',-0.675
'0:09.872',-0.665
'0:09.874',-0.655
'0:09.876',-0.665
'0:09.878',-0.675
'0:09.880',-0.670
'0:09.882',-0.655
'0:09.884',-0.645
'0:09.886',-0.675
'0:09.888',-0.690
'0:09.890',-0.670
'0:09.892',-0.670
'0:09.894',-0.670
'0:09.896',-0.650
'0:09.898',-0.660
'0:09.900',-0.660
'0:09.902',-0.650
'0:09.904',-0.645
'0:09.906',-0.670
'0:09.908',-0.660
'0:09.910',-0.635
'0:09.912',-0.635
'0:09.914',-0.650
'0:09.916',-0.675
'0:09.918',-0.660
'0:09.920',-0.650
'0:09.922',-0.660
'0:09.924',-0.675
'0:09.926',-0.680
'0:09.928',-0.665
'0:09.930',-0.640
'0:09.932',-0.655
'0:09.934',-0.670
'0:09.936',-0.650
'0:09.938',-0.655
'0:09.940',-0.640
'0:09.942',-0.655
'0:09.944',-0.635
'0:09.946',-0.655
'0:09.948',-0.655
'0:09.950',-0.645
'0:09.952',-0.665
'0:09.954',-0.660
'0:09.956',-0.620
'0:09.958',-0.630
'0:09.960',-0.650
'0:09.962',-0.675
'0:09.964',-0.650
'0:09.966',-0.650
'0:09.968',-0.655
'0:09.970',-0.655
'0:09.972',-0.655
'0:09.974',-0.620
'0:09.976',-0.625
'0:09.978',-0.660
'0:09.980',-0.630
'0:09.982',-0.655
'0:09.984',-0.625
'0:09.986',-0.655
'0:09.988',-0.630
'0:09.990',-0.640
'0:09.992',-0.625
'0:09.994',-0.640
'0:09.996',-0.650
'0:09.998',-0.665
'0:10.000',-0.640
'0:10.002',-0.640
'0:10.004',-0.630
'0:10.006',-0.660
'0:10.008',-0.630
'0:10.010',-0.650
'0:10.012',-0.625
'0:10.014',-0.645
'0:10.016',-0.630
'0:10.018',-0.625
'0:10.020',-0.630
'0:10.022',-0.615
'0:10.024',-0.610
'0:10.026',-0.625
'0:10.028',-0.650
'0:10.030',-0.655
'0:10.032',-0.645
'0:10.034',-0.645
'0:10.036',-0.645
'0:10.038',-0.635
'0:10.040',-0.630
'0:10.042',-0.585
'0:10.044',-0.630
'0:10.046',-0.630
'0:10.048',-0.635
'0:10.050',-0.635
'0:10.052',-0.650
'0:10.054',-0.645
'0:10.056',-0.620
'0:10.058',-0.635
'0:10.060',-0.630
'0:10.062',-0.640
'0:10.064',-0.645
'0:10.066',-0.625
'0:10.068',-0.635
'0:10.070',-0.635
'0:10.072',-0.630
'0:10.074',-0.620
'0:10.076',-0.630
'0:10.078',-0.620
'0:10.080',-0.645
'0:10.082',-0.640
'0:10.084',-0.635
'0:10.086',-0.640
'0:10.088',-0.620
'0:10.090',-0.625
'0:10.092',-0.625
'0:10.094',-0.635
'0:10.096',-0.635
'0:10.098',-0.610
'0:10.100',-0.630
'0:10.102',-0.630
'0:10.104',-0.615
'0:10.106',-0.620
'0:10.108',-0.640
'0:10.110',-0.645
'0:10.112',-0.650
'0:10.114',-0.595
'0:10.116',-0.630
'0:10.118',-0.635
'0:10.120',-0.615
'0:10.122',-0.600
'0:10.124',-0.630
'0:10.126',-0.640
'0:10.128',-0.630
'0:10.130',-0.625
'0:10.132',-0.595
'0:10.134',-0.615
'0:10.136',-0.615
'0:10.138',-0.610
'0:10.140',-0.655
'0:10.142',-0.615
'0:10.144',-0.600
'0:10.146',-0.595
'0:10.148',-0.595
'0:10.150',-0.610
'0:10.152',-0.605
'0:10.154',-0.595
'0:10.156',-0.565
'0:10.158',-0.585
'0:10.160',-0.605
'0:10.162',-0.570
'0:10.164',-0.575
'0:10.166',-0.560
'0:10.168',-0.585
'0:10.170',-0.560
'0:10.172',-0.570
'0:10.174',-0.585
'0:10.176',-0.550
'0:10.178',-0.540
'0:10.180',-0.530
'0:10.182',-0.530
'0:10.184',-0.520
'0:10.186',-0.570
'0:10.188',-0.570
'0:10.190',-0.550
'0:10.192',-0.555
'0:10.194',-0.535
'0:10.196',-0.540
'0:10.198',-0.570
'0:10.200',-0.560
'0:10.202',-0.540
'0:10.204',-0.570
'0:10.206',-0.595
'0:10.208',-0.585
'0:10.210',-0.605
'0:10.212',-0.605
'0:10.214',-0.600
'0:10.216',-0.600
'0:10.218',-0.605
'0:10.220',-0.610
'0:10.222',-0.620
'0:10.224',-0.625
'0:10.226',-0.615
'0:10.228',-0.610
'0:10.230',-0.620
'0:10.232',-0.610
'0:10.234',-0.605
'0:10.236',-0.615
'0:10.238',-0.605
'0:10.240',-0.605
'0:10.242',-0.595
'0:10.244',-0.615
'0:10.246',-0.615
'0:10.248',-0.605
'0:10.250',-0.615
'0:10.252',-0.620
'0:10.254',-0.610
'0:10.256',-0.605
'0:10.258',-0.605
'0:10.260',-0.630
'0:10.262',-0.610
'0:10.264',-0.615
'0:10.266',-0.625
'0:10.268',-0.630
'0:10.270',-0.635
'0:10.272',-0.625
'0:10.274',-0.630
'0:10.276',-0.635
'0:10.278',-0.585
'0:10.280',-0.620
'0:10.282',-0.620
'0:10.284',-0.640
'0:10.286',-0.680
'0:10.288',-0.725
'0:10.290',-0.735
'0:10.292',-0.745
'0:10.294',-0.790
'0:10.296',-0.840
'0:10.298',-0.810
'0:10.300',-0.790
'0:10.302',-0.750
'0:10.304',-0.665
'0:10.306',-0.540
'0:10.308',-0.375
'0:10.310',-0.220
'0:10.312',-0.105
'0:10.314',0.025
'0:10.316',0.165
'0:10.318',0.330
'0:10.320',0.395
'0:10.322',0.440
'0:10.324',0.410
'0:10.326',0.345
'0:10.328',0.270
'0:10.330',0.205
'0:10.332',0.140
'0:10.334',0.030
'0:10.336',-0.160
'0:10.338',-0.230
'0:10.340',-0.275
'0:10.342',-0.345
'0:10.344',-0.390
'0:10.346',-0.410
'0:10.348',-0.445
'0:10.350',-0.500
'0:10.352',-0.505
'0:10.354',-0.525
'0:10.356',-0.555
'0:10.358',-0.545
'0:10.360',-0.560
'0:10.362',-0.560
'0:10.364',-0.555
'0:10.366',-0.585
'0:10.368',-0.575
'0:10.370',-0.595
'0:10.372',-0.610
'0:10.374',-0.600
'0:10.376',-0.575
'0:10.378',-0.590
'0:10.380',-0.600
'0:10.382',-0.610
'0:10.384',-0.600
'0:10.386',-0.605
'0:10.388',-0.615
'0:10.390',-0.605
'0:10.392',-0.635
'0:10.394',-0.590
'0:10.396',-0.605
'0:10.398',-0.600
'0:10.400',-0.595
'0:10.402',-0.580
'0:10.404',-0.615
'0:10.406',-0.605
'0:10.408',-0.600
'0:10.410',-0.595
'0:10.412',-0.590
'0:10.414',-0.610
'0:10.416',-0.605
'0:10.418',-0.595
'0:10.420',-0.595
'0:10.422',-0.620
'0:10.424',-0.610
'0:10.426',-0.600
'0:10.428',-0.595
'0:10.430',-0.605
'0:10.432',-0.600
'0:10.434',-0.605
'0:10.436',-0.575
'0:10.438',-0.585
'0:10.440',-0.590
'0:10.442',-0.575
'0:10.444',-0.585
'0:10.446',-0.580
'0:10.448',-0.605
'0:10.450',-0.595
'0:10.452',-0.570
'0:10.454',-0.580
'0:10.456',-0.590
'0:10.458',-0.585
'0:10.460',-0.595
'0:10.462',-0.590
'0:10.464',-0.565
'0:10.466',-0.575
'0:10.468',-0.590
'0:10.470',-0.560
'0:10.472',-0.565
'0:10.474',-0.565
'0:10.476',-0.565
'0:10.478',-0.575
'0:10.480',-0.565
'0:10.482',-0.545
'0:10.484',-0.565
'0:10.486',-0.560
'0:10.488',-0.555
'0:10.490',-0.565
'0:10.492',-0.555
'0:10.494',-0.555
'0:10.496',-0.540
'0:10.498',-0.545
'0:10.500',-0.545
'0:10.502',-0.550
'0:10.504',-0.560
'0:10.506',-0.530
'0:10.508',-0.535
'0:10.510',-0.540
'0:10.512',-0.515
'0:10.514',-0.515
'0:10.516',-0.515
'0:10.518',-0.525
'0:10.520',-0.520
'0:10.522',-0.490
'0:10.524',-0.510
'0:10.526',-0.480
'0:10.528',-0.455
'0:10.530',-0.460
'0:10.532',-0.475
'0:10.534',-0.475
'0:10.536',-0.470
'0:10.538',-0.430
'0:10.540',-0.415
'0:10.542',-0.455
'0:10.544',-0.445
'0:10.546',-0.440
'0:10.548',-0.425
'0:10.550',-0.425
'0:10.552',-0.415
'0:10.554',-0.415
'0:10.556',-0.410
'0:10.558',-0.425
'0:10.560',-0.415
'0:10.562',-0.405
'0:10.564',-0.415
'0:10.566',-0.400
'0:10.568',-0.430
'0:10.570',-0.415
'0:10.572',-0.405
'0:10.574',-0.400
'0:10.576',-0.405
'0:10.578',-0.440
'0:10.580',-0.435
'0:10.582',-0.440
'0:10.584',-0.425
'0:10.586',-0.430
'0:10.588',-0.440
'0:10.590',-0.430
'0:10.592',-0.445
'0:10.594',-0.455
'0:10.596',-0.460
'0:10.598',-0.455
'0:10.600',-0.495
'0:10.602',-0.480
'0:10.604',-0.480
'0:10.606',-0.485
'0:10.608',-0.515
'0:10.610',-0.505
'0:10.612',-0.515
'0:10.614',-0.505
'0:10.616',-0.540
'0:10.618',-0.525
'0:10.620',-0.515
'0:10.622',-0.510
'0:10.624',-0.520
'0:10.626',-0.520
'0:10.628',-0.545
'0:10.630',-0.545
'0:10.632',-0.530
'0:10.634',-0.550
'0:10.636',-0.555
'0:10.638',-0.550
'0:10.640',-0.550
'0:10.642',-0.565
'0:10.644',-0.545
'0:10.646',-0.555
'0:10.648',-0.565
'0:10.650',-0.570
'0:10.652',-0.550
'0:10.654',-0.550
'0:10.656',-0.560
'0:10.658',-0.550
'0:10.660',-0.570
'0:10.662',-0.560
'0:10.664',-0.545
'0:10.666',-0.565
'0:10.668',-0.570
'0:10.670',-0.575
'0:10.672',-0.560
'0:10.674',-0.530
'0:10.676',-0.555
'0:10.678',-0.555
'0:10.680',-0.555
'0:10.682',-0.560
'0:10.684',-0.550
'0:10.686',-0.565
'0:10.688',-0.575
'0:10.690',-0.530
'0:10.692',-0.575
'0:10.694',-0.575
'0:10.696',-0.560
'0:10.698',-0.545
'0:10.700',-0.525
'0:10.702',-0.545
'0:10.704',-0.545
'0:10.706',-0.540
'0:10.708',-0.535
'0:10.710',-0.530
'0:10.712',-0.555
'0:10.714',-0.565
'0:10.716',-0.540
'0:10.718',-0.530
'0:10.720',-0.570
'0:10.722',-0.545
'0:10.724',-0.560
'0:10.726',-0.560
'0:10.728',-0.555
'0:10.730',-0.545
'0:10.732',-0.545
'0:10.734',-0.540
'0:10.736',-0.550
'0:10.738',-0.555
'0:10.740',-0.545
'0:10.742',-0.555
'0:10.744',-0.555
'0:10.746',-0.565
'0:10.748',-0.545
'0:10.750',-0.560
'0:10.752',-0.550
'0:10.754',-0.555
'0:10.756',-0.535
'0:10.758',-0.535
'0:10.760',-0.540
'0:10.762',-0.570
'0:10.764',-0.565
'0:10.766',-0.560
'0:10.768',-0.535
'0:10.770',-0.535
'0:10.772',-0.540
'0:10.774',-0.555
'0:10.776',-0.540
'0:10.778',-0.550
'0:10.780',-0.545
'0:10.782',-0.550
'0:10.784',-0.545
'0:10.786',-0.550
'0:10.788',-0.555
'0:10.790',-0.550
'0:10.792',-0.545
'0:10.794',-0.555
'0:10.796',-0.550
'0:10.798',-0.565
'0:10.800',-0.560
'0:10.802',-0.540
'0:10.804',-0.540
'0:10.806',-0.540
'0:10.808',-0.535
'0:10.810',-0.530
'0:10.812',-0.535
'0:10.814',-0.540
'0:10.816',-0.535
'0:10.818',-0.545
'0:10.820',-0.530
'0:10.822',-0.525
'0:10.824',-0.525
'0:10.826',-0.545
'0:10.828',-0.510
'0:10.830',-0.530
'0:10.832',-0.550
'0:10.834',-0.540
'0:10.836',-0.540
'0:10.838',-0.520
'0:10.840',-0.535
'0:10.842',-0.555
'0:10.844',-0.545
'0:10.846',-0.570
'0:10.848',-0.545
'0:10.850',-0.530
'0:10.852',-0.535
'0:10.854',-0.535
'0:10.856',-0.540
'0:10.858',-0.535
'0:10.860',-0.550
'0:10.862',-0.535
'0:10.864',-0.530
'0:10.866',-0.535
'0:10.868',-0.540
'0:10.870',-0.535
'0:10.872',-0.545
'0:10.874',-0.540
'0:10.876',-0.540
'0:10.878',-0.535
'0:10.880',-0.535
'0:10.882',-0.555
'0:10.884',-0.550
'0:10.886',-0.545
'0:10.888',-0.550
'0:10.890',-0.550
'0:10.892',-0.535
'0:10.894',-0.520
'0:10.896',-0.530
'0:10.898',-0.555
'0:10.900',-0.550
'0:10.902',-0.525
'0:10.904',-0.545
'0:10.906',-0.550
'0:10.908',-0.560
'0:10.910',-0.540
'0:10.912',-0.550
'0:10.914',-0.540
'0:10.916',-0.525
'0:10.918',-0.530
'0:10.920',-0.550
'0:10.922',-0.570
'0:10.924',-0.560
'0:10.926',-0.550
'0:10.928',-0.560
'0:10.930',-0.590
'0:10.932',-0.510
'0:10.934',-0.535
'0:10.936',-0.590
'0:10.938',-0.550
'0:10.940',-0.560
'0:10.942',-0.545
'0:10.944',-0.535
'0:10.946',-0.530
'0:10.948',-0.540
'0:10.950',-0.545
'0:10.952',-0.550
'0:10.954',-0.535
'0:10.956',-0.545
'0:10.958',-0.550
'0:10.960',-0.535
'0:10.962',-0.555
'0:10.964',-0.565
'0:10.966',-0.535
'0:10.968',-0.515
'0:10.970',-0.520
'0:10.972',-0.525
'0:10.974',-0.515
'0:10.976',-0.500
'0:10.978',-0.495
'0:10.980',-0.500
'0:10.982',-0.530
'0:10.984',-0.515
'0:10.986',-0.515
'0:10.988',-0.495
'0:10.990',-0.500
'0:10.992',-0.490
'0:10.994',-0.465
'0:10.996',-0.460
'0:10.998',-0.465
'0:11.000',-0.485
'0:11.002',-0.480
'0:11.004',-0.475
'0:11.006',-0.515
'0:11.008',-0.475
'0:11.010',-0.475
'0:11.012',-0.480
'0:11.014',-0.485
'0:11.016',-0.505
'0:11.018',-0.480
'0:11.020',-0.505
'0:11.022',-0.505
'0:11.024',-0.500
'0:11.026',-0.505
'0:11.028',-0.510
'0:11.030',-0.520
'0:11.032',-0.525
'0:11.034',-0.525
'0:11.036',-0.550
'0:11.038',-0.535
'0:11.040',-0.550
'0:11.042',-0.545
'0:11.044',-0.560
'0:11.046',-0.550
'0:11.048',-0.560
'0:11.050',-0.565
'0:11.052',-0.535
'0:11.054',-0.580
'0:11.056',-0.560
'0:11.058',-0.525
'0:11.060',-0.580
'0:11.062',-0.570
'0:11.064',-0.580
'0:11.066',-0.555
'0:11.068',-0.545
'0:11.070',-0.555
'0:11.072',-0.550
'0:11.074',-0.565
'0:11.076',-0.555
'0:11.078',-0.550
'0:11.080',-0.560
'0:11.082',-0.575
'0:11.084',-0.575
'0:11.086',-0.580
'0:11.088',-0.565
'0:11.090',-0.560
'0:11.092',-0.580
'0:11.094',-0.575
'0:11.096',-0.560
'0:11.098',-0.565
'0:11.100',-0.590
'0:11.102',-0.580
'0:11.104',-0.585
'0:11.106',-0.595
'0:11.108',-0.615
'0:11.110',-0.650
'0:11.112',-0.715
'0:11.114',-0.745
'0:11.116',-0.800
'0:11.118',-0.790
'0:11.120',-0.770
'0:11.122',-0.715
'0:11.124',-0.640
'0:11.126',-0.535
'0:11.128',-0.365
'0:11.130',-0.180
'0:11.132',-0.010
'0:11.134',0.110
'0:11.136',0.290
'0:11.138',0.445
'0:11.140',0.535
'0:11.142',0.610
'0:11.144',0.620
'0:11.146',0.525
'0:11.148',0.480
'0:11.150',0.390
'0:11.152',0.295
'0:11.154',0.200
'0:11.156',0.065
'0:11.158',-0.090
'0:11.160',-0.190
'0:11.162',-0.250
'0:11.164',-0.295
'0:11.166',-0.340
'0:11.168',-0.370
'0:11.170',-0.395
'0:11.172',-0.445
'0:11.174',-0.460
'0:11.176',-0.480
'0:11.178',-0.475
'0:11.180',-0.480
'0:11.182',-0.515
'0:11.184',-0.520
'0:11.186',-0.535
'0:11.188',-0.520
'0:11.190',-0.530
'0:11.192',-0.510
'0:11.194',-0.560
'0:11.196',-0.560
'0:11.198',-0.545
'0:11.200',-0.555
'0:11.202',-0.565
'0:11.204',-0.565
'0:11.206',-0.550
'0:11.208',-0.560
'0:11.210',-0.560
'0:11.212',-0.545
'0:11.214',-0.555
'0:11.216',-0.555
'0:11.218',-0.560
'0:11.220',-0.545
'0:11.222',-0.555
'0:11.224',-0.550
'0:11.226',-0.525
'0:11.228',-0.550
'0:11.230',-0.550
'0:11.232',-0.570
'0:11.234',-0.575
'0:11.236',-0.555
'0:11.238',-0.565
'0:11.240',-0.585
'0:11.242',-0.560
'0:11.244',-0.540
'0:11.246',-0.540
'0:11.248',-0.550
'0:11.250',-0.530
'0:11.252',-0.560
'0:11.254',-0.535
'0:11.256',-0.530
'0:11.258',-0.520
'0:11.260',-0.545
'0:11.262',-0.540
'0:11.264',-0.540
'0:11.266',-0.530
'0:11.268',-0.555
'0:11.270',-0.545
'0:11.272',-0.525
'0:11.274',-0.545
'0:11.276',-0.535
'0:11.278',-0.540
'0:11.280',-0.545
'0:11.282',-0.545
'0:11.284',-0.530
'0:11.286',-0.540
'0:11.288',-0.535
'0:11.290',-0.545
'0:11.292',-0.505
'0:11.294',-0.515
'0:11.296',-0.550
'0:11.298',-0.515
'0:11.300',-0.515
'0:11.302',-0.525
'0:11.304',-0.515
'0:11.306',-0.515
'0:11.308',-0.525
'0:11.310',-0.510
'0:11.312',-0.490
'0:11.314',-0.505
'0:11.316',-0.525
'0:11.318',-0.500
'0:11.320',-0.490
'0:11.322',-0.485
'0:11.324',-0.480
'0:11.326',-0.475
'0:11.328',-0.465
'0:11.330',-0.485
'0:11.332',-0.475
'0:11.334',-0.470
'0:11.336',-0.465
'0:11.338',-0.460
'0:11.340',-0.455
'0:11.342',-0.450
'0:11.344',-0.450
'0:11.346',-0.430
'0:11.348',-0.435
'0:11.350',-0.430
'0:11.352',-0.410
'0:11.354',-0.410
'0:11.356',-0.425
'0:11.358',-0.405
'0:11.360',-0.390
'0:11.362',-0.400
'0:11.364',-0.415
'0:11.366',-0.405
'0:11.368',-0.390
'0:11.370',-0.380
'0:11.372',-0.360
'0:11.374',-0.370
'0:11.376',-0.365
'0:11.378',-0.350
'0:11.380',-0.375
'0:11.382',-0.370
'0:11.384',-0.370
'0:11.386',-0.355
'0:11.388',-0.350
'0:11.390',-0.370
'0:11.392',-0.355
'0:11.394',-0.335
'0:11.396',-0.360
'0:11.398',-0.365
'0:11.400',-0.360
'0:11.402',-0.385
'0:11.404',-0.390
'0:11.406',-0.385
'0:11.408',-0.390
'0:11.410',-0.390
'0:11.412',-0.420
'0:11.414',-0.405
'0:11.416',-0.410
'0:11.418',-0.415
'0:11.420',-0.410
'0:11.422',-0.430
'0:11.424',-0.425
'0:11.426',-0.435
'0:11.428',-0.435
'0:11.430',-0.475
'0:11.432',-0.460
'0:11.434',-0.465
'0:11.436',-0.475
'0:11.438',-0.475
'0:11.440',-0.465
'0:11.442',-0.490
'0:11.444',-0.485
'0:11.446',-0.485
'0:11.448',-0.500
'0:11.450',-0.505
'0:11.452',-0.500
'0:11.454',-0.500
'0:11.456',-0.495
'0:11.458',-0.505
'0:11.460',-0.500
'0:11.462',-0.495
'0:11.464',-0.515
'0:11.466',-0.505
'0:11.468',-0.500
'0:11.470',-0.520
'0:11.472',-0.500
'0:11.474',-0.500
'0:11.476',-0.500
'0:11.478',-0.500
'0:11.480',-0.515
'0:11.482',-0.510
'0:11.484',-0.510
'0:11.486',-0.505
'0:11.488',-0.495
'0:11.490',-0.515
'0:11.492',-0.505
'0:11.494',-0.495
'0:11.496',-0.540
'0:11.498',-0.520
'0:11.500',-0.510
'0:11.502',-0.525
'0:11.504',-0.470
'0:11.506',-0.495
'0:11.508',-0.505
'0:11.510',-0.500
'0:11.512',-0.510
'0:11.514',-0.525
'0:11.516',-0.520
'0:11.518',-0.495
'0:11.520',-0.510
'0:11.522',-0.505
'0:11.524',-0.495
'0:11.526',-0.525
'0:11.528',-0.505
'0:11.530',-0.520
'0:11.532',-0.510
'0:11.534',-0.490
'0:11.536',-0.480
'0:11.538',-0.505
'0:11.540',-0.510
'0:11.542',-0.545
'0:11.544',-0.515
'0:11.546',-0.525
'0:11.548',-0.500
'0:11.550',-0.490
'0:11.552',-0.500
'0:11.554',-0.505
'0:11.556',-0.500
'0:11.558',-0.485
'0:11.560',-0.520
'0:11.562',-0.525
'0:11.564',-0.500
'0:11.566',-0.480
'0:11.568',-0.510
'0:11.570',-0.510
'0:11.572',-0.485
'0:11.574',-0.510
'0:11.576',-0.515
'0:11.578',-0.535
'0:11.580',-0.515
'0:11.582',-0.500
'0:11.584',-0.475
'0:11.586',-0.490
'0:11.588',-0.490
'0:11.590',-0.485
'0:11.592',-0.505
'0:11.594',-0.500
'0:11.596',-0.485
'0:11.598',-0.515
'0:11.600',-0.505
'0:11.602',-0.500
'0:11.604',-0.490
'0:11.606',-0.505
'0:11.608',-0.500
'0:11.610',-0.490
'0:11.612',-0.490
'0:11.614',-0.495
'0:11.616',-0.510
'0:11.618',-0.505
'0:11.620',-0.495
'0:11.622',-0.505
'0:11.624',-0.490
'0:11.626',-0.500
'0:11.628',-0.480
'0:11.630',-0.480
'0:11.632',-0.495
'0:11.634',-0.495
'0:11.636',-0.485
'0:11.638',-0.510
'0:11.640',-0.475
'0:11.642',-0.495
'0:11.644',-0.515
'0:11.646',-0.495
'0:11.648',-0.470
'0:11.650',-0.495
'0:11.652',-0.495
'0:11.654',-0.490
'0:11.656',-0.495
'0:11.658',-0.500
'0:11.660',-0.520
'0:11.662',-0.475
'0:11.664',-0.495
'0:11.666',-0.500
'0:11.668',-0.500
'0:11.670',-0.500
'0:11.672',-0.505
'0:11.674',-0.485
'0:11.676',-0.485
'0:11.678',-0.505
'0:11.680',-0.490
'0:11.682',-0.490
'0:11.684',-0.480
'0:11.686',-0.480
'0:11.688',-0.480
'0:11.690',-0.510
'0:11.692',-0.495
'0:11.694',-0.490
'0:11.696',-0.495
'0:11.698',-0.500
'0:11.700',-0.495
'0:11.702',-0.485
'0:11.704',-0.500
'0:11.706',-0.490
'0:11.708',-0.480
'0:11.710',-0.495
'0:11.712',-0.525
'0:11.714',-0.505
'0:11.716',-0.465
'0:11.718',-0.495
'0:11.720',-0.485
'0:11.722',-0.480
'0:11.724',-0.485
'0:11.726',-0.520
'0:11.728',-0.505
'0:11.730',-0.510
'0:11.732',-0.520
'0:11.734',-0.520
'0:11.736',-0.515
'0:11.738',-0.500
'0:11.740',-0.500
'0:11.742',-0.495
'0:11.744',-0.495
'0:11.746',-0.510
'0:11.748',-0.495
'0:11.750',-0.440
'0:11.752',-0.490
'0:11.754',-0.500
'0:11.756',-0.490
'0:11.758',-0.485
'0:11.760',-0.495
'0:11.762',-0.490
'0:11.764',-0.500
'0:11.766',-0.495
'0:11.768',-0.505
'0:11.770',-0.505
'0:11.772',-0.510
'0:11.774',-0.530
'0:11.776',-0.500
'0:11.778',-0.490
'0:11.780',-0.495
'0:11.782',-0.495
'0:11.784',-0.490
'0:11.786',-0.480
'0:11.788',-0.475
'0:11.790',-0.500
'0:11.792',-0.490
'0:11.794',-0.485
'0:11.796',-0.495
'0:11.798',-0.500
'0:11.800',-0.495
'0:11.802',-0.485
'0:11.804',-0.470
'0:11.806',-0.450
'0:11.808',-0.470
'0:11.810',-0.485
'0:11.812',-0.465
'0:11.814',-0.455
'0:11.816',-0.460
'0:11.818',-0.470
'0:11.820',-0.455
'0:11.822',-0.485
'0:11.824',-0.465
'0:11.826',-0.455
'0:11.828',-0.465
'0:11.830',-0.435
'0:11.832',-0.465
'0:11.834',-0.450
'0:11.836',-0.430
'0:11.838',-0.420
'0:11.840',-0.415
'0:11.842',-0.420
'0:11.844',-0.415
'0:11.846',-0.425
'0:11.848',-0.435
'0:11.850',-0.440
'0:11.852',-0.430
'0:11.854',-0.410
'0:11.856',-0.430
'0:11.858',-0.415
'0:11.860',-0.435
'0:11.862',-0.425
'0:11.864',-0.440
'0:11.866',-0.475
'0:11.868',-0.485
'0:11.870',-0.450
'0:11.872',-0.450
'0:11.874',-0.460
'0:11.876',-0.470
'0:11.878',-0.475
'0:11.880',-0.485
'0:11.882',-0.510
'0:11.884',-0.465
'0:11.886',-0.455
'0:11.888',-0.495
'0:11.890',-0.500
'0:11.892',-0.480
'0:11.894',-0.505
'0:11.896',-0.505
'0:11.898',-0.495
'0:11.900',-0.490
'0:11.902',-0.485
'0:11.904',-0.480
'0:11.906',-0.495
'0:11.908',-0.530
'0:11.910',-0.520
'0:11.912',-0.495
'0:11.914',-0.500
'0:11.916',-0.500
'0:11.918',-0.500
'0:11.920',-0.500
'0:11.922',-0.495
'0:11.924',-0.515
'0:11.926',-0.460
'0:11.928',-0.475
'0:11.930',-0.490
'0:11.932',-0.510
'0:11.934',-0.520
'0:11.936',-0.520
'0:11.938',-0.505
'0:11.940',-0.495
'0:11.942',-0.520
'0:11.944',-0.515
'0:11.946',-0.520
'0:11.948',-0.560
'0:11.950',-0.595
'0:11.952',-0.650
'0:11.954',-0.670
'0:11.956',-0.690
'0:11.958',-0.740
'0:11.960',-0.735
'0:11.962',-0.700
'0:11.964',-0.625
'0:11.966',-0.525
'0:11.968',-0.415
'0:11.970',-0.250
'0:11.972',-0.070
'0:11.974',0.100
'0:11.976',0.250
'0:11.978',0.390
'0:11.980',0.570
'0:11.982',0.705
'0:11.984',0.700
'0:11.986',0.665
'0:11.988',0.570
'0:11.990',0.505
'0:11.992',0.420
'0:11.994',0.330
'0:11.996',0.230
'0:11.998',0.060
'0:12.000',-0.035
'0:12.002',-0.115
'0:12.004',-0.165
'0:12.006',-0.195
'0:12.008',-0.250
'0:12.010',-0.295
'0:12.012',-0.320
'0:12.014',-0.355
'0:12.016',-0.380
'0:12.018',-0.375
'0:12.020',-0.390
'0:12.022',-0.415
'0:12.024',-0.410
'0:12.026',-0.415
'0:12.028',-0.425
'0:12.030',-0.390
'0:12.032',-0.385
'0:12.034',-0.425
'0:12.036',-0.435
'0:12.038',-0.445
'0:12.040',-0.425
'0:12.042',-0.385
'0:12.044',-0.410
'0:12.046',-0.440
'0:12.048',-0.455
'0:12.050',-0.450
'0:12.052',-0.440
'0:12.054',-0.430
'0:12.056',-0.430
'0:12.058',-0.435
'0:12.060',-0.440
'0:12.062',-0.440
'0:12.064',-0.435
'0:12.066',-0.465
'0:12.068',-0.450
'0:12.070',-0.415
'0:12.072',-0.430
'0:12.074',-0.410
'0:12.076',-0.425
'0:12.078',-0.425
'0:12.080',-0.430
'0:12.082',-0.430
'0:12.084',-0.410
'0:12.086',-0.440
'0:12.088',-0.415
'0:12.090',-0.425
'0:12.092',-0.400
'0:12.094',-0.415
'0:12.096',-0.430
'0:12.098',-0.430
'0:12.100',-0.415
'0:12.102',-0.440
'0:12.104',-0.425
'0:12.106',-0.435
'0:12.108',-0.415
'0:12.110',-0.430
'0:12.112',-0.425
'0:12.114',-0.420
'0:12.116',-0.420
'0:12.118',-0.425
'0:12.120',-0.415
'0:12.122',-0.405
'0:12.124',-0.405
'0:12.126',-0.395
'0:12.128',-0.420
'0:12.130',-0.405
'0:12.132',-0.410
'0:12.134',-0.410
'0:12.136',-0.430
'0:12.138',-0.410
'0:12.140',-0.375
'0:12.142',-0.410
'0:12.144',-0.385
'0:12.146',-0.380
'0:12.148',-0.405
'0:12.150',-0.420
'0:12.152',-0.395
'0:12.154',-0.370
'0:12.156',-0.375
'0:12.158',-0.370
'0:12.160',-0.375
'0:12.162',-0.360
'0:12.164',-0.360
'0:12.166',-0.365
'0:12.168',-0.380
'0:12.170',-0.370
'0:12.172',-0.370
'0:12.174',-0.340
'0:12.176',-0.325
'0:12.178',-0.335
'0:12.180',-0.330
'0:12.182',-0.355
'0:12.184',-0.320
'0:12.186',-0.300
'0:12.188',-0.305
'0:12.190',-0.290
'0:12.192',-0.310
'0:12.194',-0.310
'0:12.196',-0.320
'0:12.198',-0.270
'0:12.200',-0.290
'0:12.202',-0.275
'0:12.204',-0.275
'0:12.206',-0.265
'0:12.208',-0.280
'0:12.210',-0.250
'0:12.212',-0.230
'0:12.214',-0.230
'0:12.216',-0.250
'0:12.218',-0.255
'0:12.220',-0.245
'0:12.222',-0.250
'0:12.224',-0.240
'0:12.226',-0.250
'0:12.228',-0.215
'0:12.230',-0.215
'0:12.232',-0.225
'0:12.234',-0.250
'0:12.236',-0.250
'0:12.238',-0.235
'0:12.240',-0.235
'0:12.242',-0.205
'0:12.244',-0.240
'0:12.246',-0.275
'0:12.248',-0.265
'0:12.250',-0.280
'0:12.252',-0.270
'0:12.254',-0.275
'0:12.256',-0.280
'0:12.258',-0.275
'0:12.260',-0.290
'0:12.262',-0.320
'0:12.264',-0.295
'0:12.266',-0.325
'0:12.268',-0.325
'0:12.270',-0.325
'0:12.272',-0.330
'0:12.274',-0.335
'0:12.276',-0.370
'0:12.278',-0.375
'0:12.280',-0.375
'0:12.282',-0.355
'0:12.284',-0.375
'0:12.286',-0.355
'0:12.288',-0.355
'0:12.290',-0.350
'0:12.292',-0.375
'0:12.294',-0.380
'0:12.296',-0.360
'0:12.298',-0.385
'0:12.300',-0.395
'0:12.302',-0.395
'0:12.304',-0.380
'0:12.306',-0.380
'0:12.308',-0.385
'0:12.310',-0.405
'0:12.312',-0.395
'0:12.314',-0.385
'0:12.316',-0.395
'0:12.318',-0.380
'0:12.320',-0.385
'0:12.322',-0.400
'0:12.324',-0.390
'0:12.326',-0.380
'0:12.328',-0.395
'0:12.330',-0.405
'0:12.332',-0.415
'0:12.334',-0.400
'0:12.336',-0.390
'0:12.338',-0.375
'0:12.340',-0.400
'0:12.342',-0.365
'0:12.344',-0.400
'0:12.346',-0.395
'0:12.348',-0.360
'0:12.350',-0.375
'0:12.352',-0.375
'0:12.354',-0.405
'0:12.356',-0.410
'0:12.358',-0.405
'0:12.360',-0.410
'0:12.362',-0.415
'0:12.364',-0.395
'0:12.366',-0.395
'0:12.368',-0.385
'0:12.370',-0.390
'0:12.372',-0.375
'0:12.374',-0.380
'0:12.376',-0.380
'0:12.378',-0.400
'0:12.380',-0.390
'0:12.382',-0.405
'0:12.384',-0.405
'0:12.386',-0.410
'0:12.388',-0.390
'0:12.390',-0.395
'0:12.392',-0.400
'0:12.394',-0.395
'0:12.396',-0.400
'0:12.398',-0.390
'0:12.400',-0.390
'0:12.402',-0.385
'0:12.404',-0.380
'0:12.406',-0.380
'0:12.408',-0.390
'0:12.410',-0.390
'0:12.412',-0.385
'0:12.414',-0.405
'0:12.416',-0.405
'0:12.418',-0.385
'0:12.420',-0.390
'0:12.422',-0.410
'0:12.424',-0.415
'0:12.426',-0.410
'0:12.428',-0.400
'0:12.430',-0.390
'0:12.432',-0.375
'0:12.434',-0.400
'0:12.436',-0.395
'0:12.438',-0.400
'0:12.440',-0.365
'0:12.442',-0.380
'0:12.444',-0.385
'0:12.446',-0.405
'0:12.448',-0.395
'0:12.450',-0.390
'0:12.452',-0.395
'0:12.454',-0.395
'0:12.456',-0.400
'0:12.458',-0.400
'0:12.460',-0.385
'0:12.462',-0.390
'0:12.464',-0.395
'0:12.466',-0.395
'0:12.468',-0.405
'0:12.470',-0.360
'0:12.472',-0.400
'0:12.474',-0.415
'0:12.476',-0.400
'0:12.478',-0.385
'0:12.480',-0.385
'0:12.482',-0.385
'0:12.484',-0.375
'0:12.486',-0.390
'0:12.488',-0.400
'0:12.490',-0.395
'0:12.492',-0.400
'0:12.494',-0.400
'0:12.496',-0.405
'0:12.498',-0.410
'0:12.500',-0.390
'0:12.502',-0.410
'0:12.504',-0.415
'0:12.506',-0.380
'0:12.508',-0.415
'0:12.510',-0.400
'0:12.512',-0.400
'0:12.514',-0.395
'0:12.516',-0.375
'0:12.518',-0.400
'0:12.520',-0.405
'0:12.522',-0.390
'0:12.524',-0.395
'0:12.526',-0.395
'0:12.528',-0.395
'0:12.530',-0.405
'0:12.532',-0.395
'0:12.534',-0.405
'0:12.536',-0.405
'0:12.538',-0.385
'0:12.540',-0.400
'0:12.542',-0.400
'0:12.544',-0.400
'0:12.546',-0.405
'0:12.548',-0.425
'0:12.550',-0.420
'0:12.552',-0.400
'0:12.554',-0.425
'0:12.556',-0.385
'0:12.558',-0.390
'0:12.560',-0.395
'0:12.562',-0.385
'0:12.564',-0.410
'0:12.566',-0.410
'0:12.568',-0.410
'0:12.570',-0.410
'0:12.572',-0.425
'0:12.574',-0.395
'0:12.576',-0.415
'0:12.578',-0.400
'0:12.580',-0.400
'0:12.582',-0.385
'0:12.584',-0.405
'0:12.586',-0.385
'0:12.588',-0.405
'0:12.590',-0.420
'0:12.592',-0.415
'0:12.594',-0.400
'0:12.596',-0.415
'0:12.598',-0.405
'0:12.600',-0.400
'0:12.602',-0.405
'0:12.604',-0.405
'0:12.606',-0.410
'0:12.608',-0.415
'0:12.610',-0.390
'0:12.612',-0.405
'0:12.614',-0.410
'0:12.616',-0.415
'0:12.618',-0.410
'0:12.620',-0.410
'0:12.622',-0.420
'0:12.624',-0.415
'0:12.626',-0.395
'0:12.628',-0.405
'0:12.630',-0.400
'0:12.632',-0.420
'0:12.634',-0.375
'0:12.636',-0.440
'0:12.638',-0.395
'0:12.640',-0.410
'0:12.642',-0.395
'0:12.644',-0.420
'0:12.646',-0.425
'0:12.648',-0.425
'0:12.650',-0.405
'0:12.652',-0.395
'0:12.654',-0.400
'0:12.656',-0.405
'0:12.658',-0.405
'0:12.660',-0.385
'0:12.662',-0.385
'0:12.664',-0.375
'0:12.666',-0.365
'0:12.668',-0.380
'0:12.670',-0.380
'0:12.672',-0.400
'0:12.674',-0.380
'0:12.676',-0.375
'0:12.678',-0.370
'0:12.680',-0.355
'0:12.682',-0.370
'0:12.684',-0.385
'0:12.686',-0.355
'0:12.688',-0.355
'0:12.690',-0.345
'0:12.692',-0.330
'0:12.694',-0.325
'0:12.696',-0.325
'0:12.698',-0.330
'0:12.700',-0.330
'0:12.702',-0.330
'0:12.704',-0.310
'0:12.706',-0.345
'0:12.708',-0.360
'0:12.710',-0.365
'0:12.712',-0.360
'0:12.714',-0.340
'0:12.716',-0.340
'0:12.718',-0.345
'0:12.720',-0.355
'0:12.722',-0.395
'0:12.724',-0.380
'0:12.726',-0.405
'0:12.728',-0.400
'0:12.730',-0.390
'0:12.732',-0.390
'0:12.734',-0.385
'0:12.736',-0.380
'0:12.738',-0.385
'0:12.740',-0.400
'0:12.742',-0.375
'0:12.744',-0.415
'0:12.746',-0.410
'0:12.748',-0.405
'0:12.750',-0.415
'0:12.752',-0.415
'0:12.754',-0.420
'0:12.756',-0.430
'0:12.758',-0.390
'0:12.760',-0.410
'0:12.762',-0.415
'0:12.764',-0.400
'0:12.766',-0.400
'0:12.768',-0.430
'0:12.770',-0.410
'0:12.772',-0.410
'0:12.774',-0.420
'0:12.776',-0.420
'0:12.778',-0.420
'0:12.780',-0.410
'0:12.782',-0.430
'0:12.784',-0.415
'0:12.786',-0.420
'0:12.788',-0.435
'0:12.790',-0.425
'0:12.792',-0.415
'0:12.794',-0.425
'0:12.796',-0.440
'0:12.798',-0.435
'0:12.800',-0.430
'0:12.802',-0.490
'0:12.804',-0.510
'0:12.806',-0.525
'0:12.808',-0.580
'0:12.810',-0.600
'0:12.812',-0.635
'0:12.814',-0.630
'0:12.816',-0.620
'0:12.818',-0.575
'0:12.820',-0.505
'0:12.822',-0.340
'0:12.824',-0.195
'0:12.826',-0.045
'0:12.828',0.105
'0:12.830',0.315
'0:12.832',0.470
'0:12.834',0.630
'0:12.836',0.740
'0:12.838',0.810
'0:12.840',0.765
'0:12.842',0.660
'0:12.844',0.620
'0:12.846',0.505
'0:12.848',0.425
'0:12.850',0.325
'0:12.852',0.190
'0:12.854',0.035
'0:12.856',-0.045
'0:12.858',-0.095
'0:12.860',-0.160
'0:12.862',-0.180
'0:12.864',-0.215
'0:12.866',-0.265
'0:12.868',-0.290
'0:12.870',-0.340
'0:12.872',-0.345
'0:12.874',-0.345
'0:12.876',-0.365
'0:12.878',-0.380
'0:12.880',-0.380
'0:12.882',-0.415
'0:12.884',-0.395
'0:12.886',-0.425
'0:12.888',-0.415
'0:12.890',-0.390
'0:12.892',-0.440
'0:12.894',-0.415
'0:12.896',-0.430
'0:12.898',-0.420
'0:12.900',-0.425
'0:12.902',-0.405
'0:12.904',-0.435
'0:12.906',-0.430
'0:12.908',-0.420
'0:12.910',-0.425
'0:12.912',-0.415
'0:12.914',-0.425
'0:12.916',-0.435
'0:12.918',-0.415
'0:12.920',-0.435
'0:12.922',-0.405
'0:12.924',-0.420
'0:12.926',-0.430
'0:12.928',-0.420
'0:12.930',-0.425
'0:12.932',-0.435
'0:12.934',-0.440
'0:12.936',-0.435
'0:12.938',-0.415
'0:12.940',-0.415
'0:12.942',-0.415
'0:12.944',-0.425
'0:12.946',-0.430
'0:12.948',-0.430
'0:12.950',-0.425
'0:12.952',-0.420
'0:12.954',-0.415
'0:12.956',-0.405
'0:12.958',-0.425
'0:12.960',-0.410
'0:12.962',-0.410
'0:12.964',-0.405
'0:12.966',-0.415
'0:12.968',-0.415
'0:12.970',-0.415
'0:12.972',-0.430
'0:12.974',-0.415
'0:12.976',-0.400
'0:12.978',-0.405
'0:12.980',-0.415
'0:12.982',-0.430
'0:12.984',-0.405
'0:12.986',-0.395
'0:12.988',-0.410
'0:12.990',-0.405
'0:12.992',-0.415
'0:12.994',-0.400
'0:12.996',-0.385
'0:12.998',-0.400
'0:13.000',-0.400
'0:13.002',-0.405
'0:13.004',-0.380
'0:13.006',-0.400
'0:13.008',-0.395
'0:13.010',-0.395
'0:13.012',-0.380
'0:13.014',-0.380
'0:13.016',-0.350
'0:13.018',-0.390
'0:13.020',-0.370
'0:13.022',-0.385
'0:13.024',-0.370
'0:13.026',-0.345
'0:13.028',-0.345
'0:13.030',-0.360
'0:13.032',-0.335
'0:13.034',-0.340
'0:13.036',-0.330
'0:13.038',-0.335
'0:13.040',-0.320
'0:13.042',-0.310
'0:13.044',-0.320
'0:13.046',-0.310
'0:13.048',-0.305
'0:13.050',-0.320
'0:13.052',-0.280
'0:13.054',-0.290
'0:13.056',-0.285
'0:13.058',-0.265
'0:13.060',-0.275
'0:13.062',-0.265
'0:13.064',-0.245
'0:13.066',-0.265
'0:13.068',-0.260
'0:13.070',-0.250
'0:13.072',-0.250
'0:13.074',-0.250
'0:13.076',-0.240
'0:13.078',-0.230
'0:13.080',-0.250
'0:13.082',-0.215
'0:13.084',-0.230
'0:13.086',-0.235
'0:13.088',-0.250
'0:13.090',-0.240
'0:13.092',-0.235
'0:13.094',-0.250
'0:13.096',-0.240
'0:13.098',-0.245
'0:13.100',-0.240
'0:13.102',-0.260
'0:13.104',-0.285
'0:13.106',-0.265
'0:13.108',-0.295
'0:13.110',-0.265
'0:13.112',-0.285
'0:13.114',-0.290
'0:13.116',-0.285
'0:13.118',-0.290
'0:13.120',-0.310
'0:13.122',-0.325
'0:13.124',-0.320
'0:13.126',-0.310
'0:13.128',-0.320
'0:13.130',-0.345
'0:13.132',-0.350
'0:13.134',-0.345
'0:13.136',-0.345
'0:13.138',-0.350
'0:13.140',-0.365
'0:13.142',-0.345
'0:13.144',-0.360
'0:13.146',-0.380
'0:13.148',-0.400
'0:13.150',-0.380
'0:13.152',-0.385
'0:13.154',-0.390
'0:13.156',-0.400
'0:13.158',-0.385
'0:13.160',-0.370
'0:13.162',-0.375
'0:13.164',-0.375
'0:13.166',-0.390
'0:13.168',-0.390
'0:13.170',-0.390
'0:13.172',-0.385
'0:13.174',-0.375
'0:13.176',-0.385
'0:13.178',-0.400
'0:13.180',-0.390
'0:13.182',-0.375
'0:13.184',-0.395
'0:13.186',-0.390
'0:13.188',-0.385
'0:13.190',-0.390
'0:13.192',-0.395
'0:13.194',-0.370
'0:13.196',-0.375
'0:13.198',-0.400
'0:13.200',-0.390
'0:13.202',-0.390
'0:13.204',-0.390
'0:13.206',-0.390
'0:13.208',-0.400
'0:13.210',-0.380
'0:13.212',-0.400
'0:13.214',-0.390
'0:13.216',-0.410
'0:13.218',-0.415
'0:13.220',-0.375
'0:13.222',-0.395
'0:13.224',-0.400
'0:13.226',-0.380
'0:13.228',-0.395
'0:13.230',-0.375
'0:13.232',-0.360
'0:13.234',-0.375
'0:13.236',-0.395
'0:13.238',-0.395
'0:13.240',-0.395
'0:13.242',-0.415
'0:13.244',-0.405
'0:13.246',-0.395
'0:13.248',-0.390
'0:13.250',-0.390
'0:13.252',-0.380
'0:13.254',-0.375
'0:13.256',-0.380
'0:13.258',-0.370
'0:13.260',-0.370
'0:13.262',-0.395
'0:13.264',-0.400
'0:13.266',-0.395
'0:13.268',-0.395
'0:13.270',-0.375
'0:13.272',-0.365
'0:13.274',-0.390
'0:13.276',-0.360
'0:13.278',-0.390
'0:13.280',-0.385
'0:13.282',-0.385
'0:13.284',-0.390
'0:13.286',-0.380
'0:13.288',-0.385
'0:13.290',-0.395
'0:13.292',-0.375
'0:13.294',-0.405
'0:13.296',-0.420
'0:13.298',-0.390
'0:13.300',-0.400
'0:13.302',-0.390
'0:13.304',-0.370
'0:13.306',-0.390
'0:13.308',-0.395
'0:13.310',-0.385
'0:13.312',-0.385
'0:13.314',-0.375
'0:13.316',-0.370
'0:13.318',-0.380
'0:13.320',-0.385
'0:13.322',-0.385
'0:13.324',-0.395
'0:13.326',-0.385
'0:13.328',-0.405
'0:13.330',-0.375
'0:13.332',-0.390
'0:13.334',-0.375
'0:13.336',-0.365
'0:13.338',-0.380
