'Elapsed time','ECG I'
'hh:mm:ss.mmm','mV'
'0:00.000',-0.345
'0:00.002',-0.370
'0:00.004',-0.410
'0:00.006',-0.515
'0:00.008',-0.570
'0:00.010',-0.620
'0:00.012',-0.580
'0:00.014',-0.535
'0:00.016',-0.445
'0:00.018',-0.335
'0:00.020',-0.340
'0:00.022',-0.365
'0:00.024',-0.410
'0:00.026',-0.500
'0:00.028',-0.605
'0:00.030',-0.630
'0:00.032',-0.555
'0:00.034',-0.520
'0:00.036',-0.445
'0:00.038',-0.405
'0:00.040',-0.340
'0:00.042',-0.395
'0:00.044',-0.420
'0:00.046',-0.485
'0:00.048',-0.610
'0:00.050',-0.610
'0:00.052',-0.595
'0:00.054',-0.530
'0:00.056',-0.445
'0:00.058',-0.385
'0:00.060',-0.345
'0:00.062',-0.395
'0:00.064',-0.460
'0:00.066',-0.535
'0:00.068',-0.610
'0:00.070',-0.605
'0:00.072',-0.595
'0:00.074',-0.530
'0:00.076',-0.415
'0:00.078',-0.345
'0:00.080',-0.415
'0:00.082',-0.420
'0:00.084',-0.460
'0:00.086',-0.540
'0:00.088',-0.630
'0:00.090',-0.625
'0:00.092',-0.580
'0:00.094',-0.560
'0:00.096',-0.445
'0:00.098',-0.410
'0:00.100',-0.375
'0:00.102',-0.390
'0:00.104',-0.430
'0:00.106',-0.580
'0:00.108',-0.680
'0:00.110',-0.625
'0:00.112',-0.585
'0:00.114',-0.530
'0:00.116',-0.460
'0:00.118',-0.415
'0:00.120',-0.430
'0:00.122',-0.435
'0:00.124',-0.460
'0:00.126',-0.590
'0:00.128',-0.660
'0:00.130',-0.645
'0:00.132',-0.625
'0:00.134',-0.555
'0:00.136',-0.455
'0:00.138',-0.385
'0:00.140',-0.410
'0:00.142',-0.425
'0:00.144',-0.500
'0:00.146',-0.615
'0:00.148',-0.665
'0:00.150',-0.650
'0:00.152',-0.610
'0:00.154',-0.525
'0:00.156',-0.440
'0:00.158',-0.420
'0:00.160',-0.420
'0:00.162',-0.445
'0:00.164',-0.495
'0:00.166',-0.605
'0:00.168',-0.680
'0:00.170',-0.680
'0:00.172',-0.620
'0:00.174',-0.530
'0:00.176',-0.445
'0:00.178',-0.405
'0:00.180',-0.410
'0:00.182',-0.470
'0:00.184',-0.550
'0:00.186',-0.610
'0:00.188',-0.670
'0:00.190',-0.660
'0:00.192',-0.620
'0:00.194',-0.500
'0:00.196',-0.440
'0:00.198',-0.410
'0:00.200',-0.420
'0:00.202',-0.465
'0:00.204',-0.520
'0:00.206',-0.625
'0:00.208',-0.670
'0:00.210',-0.640
'0:00.212',-0.595
'0:00.214',-0.555
'0:00.216',-0.415
'0:00.218',-0.410
'0:00.220',-0.455
'0:00.222',-0.485
'0:00.224',-0.560
'0:00.226',-0.640
'0:00.228',-0.685
'0:00.230',-0.690
'0:00.232',-0.630
'0:00.234',-0.530
'0:00.236',-0.445
'0:00.238',-0.405
'0:00.240',-0.420
'0:00.242',-0.440
'0:00.244',-0.570
'0:00.246',-0.640
'0:00.248',-0.670
'0:00.250',-0.685
'0:00.252',-0.600
'0:00.254',-0.540
'0:00.256',-0.425
'0:00.258',-0.400
'0:00.260',-0.430
'0:00.262',-0.480
'0:00.264',-0.575
'0:00.266',-0.640
'0:00.268',-0.665
'0:00.270',-0.665
'0:00.272',-0.610
'0:00.274',-0.570
'0:00.276',-0.460
'0:00.278',-0.415
'0:00.280',-0.430
'0:00.282',-0.485
'0:00.284',-0.545
'0:00.286',-0.640
'0:00.288',-0.680
'0:00.290',-0.675
'0:00.292',-0.635
'0:00.294',-0.535
'0:00.296',-0.440
'0:00.298',-0.405
'0:00.300',-0.470
'0:00.302',-0.525
'0:00.304',-0.545
'0:00.306',-0.650
'0:00.308',-0.710
'0:00.310',-0.665
'0:00.312',-0.580
'0:00.314',-0.480
'0:00.316',-0.490
'0:00.318',-0.440
'0:00.320',-0.450
'0:00.322',-0.475
'0:00.324',-0.560
'0:00.326',-0.680
'0:00.328',-0.720
'0:00.330',-0.600
'0:00.332',-0.605
'0:00.334',-0.520
'0:00.336',-0.435
'0:00.338',-0.450
'0:00.340',-0.455
'0:00.342',-0.485
'0:00.344',-0.590
'0:00.346',-0.680
'0:00.348',-0.680
'0:00.350',-0.635
'0:00.352',-0.620
'0:00.354',-0.475
'0:00.356',-0.445
'0:00.358',-0.430
'0:00.360',-0.480
'0:00.362',-0.500
'0:00.364',-0.600
'0:00.366',-0.650
'0:00.368',-0.645
'0:00.370',-0.635
'0:00.372',-0.595
'0:00.374',-0.495
'0:00.376',-0.400
'0:00.378',-0.370
'0:00.380',-0.430
'0:00.382',-0.505
'0:00.384',-0.595
'0:00.386',-0.635
'0:00.388',-0.605
'0:00.390',-0.565
'0:00.392',-0.520
'0:00.394',-0.440
'0:00.396',-0.385
'0:00.398',-0.395
'0:00.400',-0.365
'0:00.402',-0.455
'0:00.404',-0.575
'0:00.406',-0.585
'0:00.408',-0.620
'0:00.410',-0.580
'0:00.412',-0.535
'0:00.414',-0.450
'0:00.416',-0.420
'0:00.418',-0.365
'0:00.420',-0.355
'0:00.422',-0.430
'0:00.424',-0.560
'0:00.426',-0.635
'0:00.428',-0.635
'0:00.430',-0.610
'0:00.432',-0.560
'0:00.434',-0.520
'0:00.436',-0.480
'0:00.438',-0.415
'0:00.440',-0.465
'0:00.442',-0.540
'0:00.444',-0.670
'0:00.446',-0.705
'0:00.448',-0.685
'0:00.450',-0.575
'0:00.452',-0.585
'0:00.454',-0.505
'0:00.456',-0.440
'0:00.458',-0.460
'0:00.460',-0.490
'0:00.462',-0.575
'0:00.464',-0.675
'0:00.466',-0.740
'0:00.468',-0.680
'0:00.470',-0.645
'0:00.472',-0.625
'0:00.474',-0.500
'0:00.476',-0.450
'0:00.478',-0.450
'0:00.480',-0.525
'0:00.482',-0.610
'0:00.484',-0.710
'0:00.486',-0.685
'0:00.488',-0.690
'0:00.490',-0.655
'0:00.492',-0.590
'0:00.494',-0.520
'0:00.496',-0.465
'0:00.498',-0.475
'0:00.500',-0.510
'0:00.502',-0.560
'0:00.504',-0.670
'0:00.506',-0.735
'0:00.508',-0.720
'0:00.510',-0.665
'0:00.512',-0.590
'0:00.514',-0.540
'0:00.516',-0.500
'0:00.518',-0.440
'0:00.520',-0.475
'0:00.522',-0.600
'0:00.524',-0.675
'0:00.526',-0.710
'0:00.528',-0.655
'0:00.530',-0.565
'0:00.532',-0.435
'0:00.534',-0.305
'0:00.536',-0.200
'0:00.538',-0.150
'0:00.540',-0.155
'0:00.542',-0.175
'0:00.544',-0.140
'0:00.546',-0.160
'0:00.548',-0.165
'0:00.550',-0.180
'0:00.552',-0.170
'0:00.554',-0.190
'0:00.556',-0.250
'0:00.558',-0.365
'0:00.560',-0.460
'0:00.562',-0.645
'0:00.564',-0.805
'0:00.566',-0.905
'0:00.568',-0.925
'0:00.570',-0.835
'0:00.572',-0.760
'0:00.574',-0.685
'0:00.576',-0.665
'0:00.578',-0.715
'0:00.580',-0.735
'0:00.582',-0.735
'0:00.584',-0.820
'0:00.586',-0.825
'0:00.588',-0.790
'0:00.590',-0.765
'0:00.592',-0.605
'0:00.594',-0.490
'0:00.596',-0.465
'0:00.598',-0.525
'0:00.600',-0.570
'0:00.602',-0.665
'0:00.604',-0.690
'0:00.606',-0.730
'0:00.608',-0.675
'0:00.610',-0.660
'0:00.612',-0.540
'0:00.614',-0.495
'0:00.616',-0.485
'0:00.618',-0.470
'0:00.620',-0.535
'0:00.622',-0.625
'0:00.624',-0.715
'0:00.626',-0.740
'0:00.628',-0.685
'0:00.630',-0.670
'0:00.632',-0.540
'0:00.634',-0.470
'0:00.636',-0.485
'0:00.638',-0.465
'0:00.640',-0.510
'0:00.642',-0.615
'0:00.644',-0.705
'0:00.646',-0.705
'0:00.648',-0.680
'0:00.650',-0.635
'0:00.652',-0.515
'0:00.654',-0.480
'0:00.656',-0.475
'0:00.658',-0.495
'0:00.660',-0.530
'0:00.662',-0.670
'0:00.664',-0.735
'0:00.666',-0.705
'0:00.668',-0.680
'0:00.670',-0.620
'0:00.672',-0.495
'0:00.674',-0.465
'0:00.676',-0.450
'0:00.678',-0.460
'0:00.680',-0.515
'0:00.682',-0.635
'0:00.684',-0.725
'0:00.686',-0.725
'0:00.688',-0.650
'0:00.690',-0.605
'0:00.692',-0.500
'0:00.694',-0.435
'0:00.696',-0.440
'0:00.698',-0.475
'0:00.700',-0.565
'0:00.702',-0.630
'0:00.704',-0.665
'0:00.706',-0.695
'0:00.708',-0.645
'0:00.710',-0.585
'0:00.712',-0.460
'0:00.714',-0.385
'0:00.716',-0.395
'0:00.718',-0.460
'0:00.720',-0.495
'0:00.722',-0.590
'0:00.724',-0.695
'0:00.726',-0.610
'0:00.728',-0.590
'0:00.730',-0.535
'0:00.732',-0.385
'0:00.734',-0.360
'0:00.736',-0.360
'0:00.738',-0.395
'0:00.740',-0.445
'0:00.742',-0.550
'0:00.744',-0.620
'0:00.746',-0.635
'0:00.748',-0.545
'0:00.750',-0.430
'0:00.752',-0.345
'0:00.754',-0.280
'0:00.756',-0.300
'0:00.758',-0.355
'0:00.760',-0.440
'0:00.762',-0.480
'0:00.764',-0.495
'0:00.766',-0.465
'0:00.768',-0.475
'0:00.770',-0.395
'0:00.772',-0.260
'0:00.774',-0.230
'0:00.776',-0.300
'0:00.778',-0.325
'0:00.780',-0.325
'0:00.782',-0.440
'0:00.784',-0.500
'0:00.786',-0.495
'0:00.788',-0.395
'0:00.790',-0.335
'0:00.792',-0.265
'0:00.794',-0.230
'0:00.796',-0.240
'0:00.798',-0.265
'0:00.800',-0.340
'0:00.802',-0.445
'0:00.804',-0.460
'0:00.806',-0.435
'0:00.808',-0.420
'0:00.810',-0.360
'0:00.812',-0.265
'0:00.814',-0.245
'0:00.816',-0.280
'0:00.818',-0.295
'0:00.820',-0.405
'0:00.822',-0.525
'0:00.824',-0.560
'0:00.826',-0.535
'0:00.828',-0.505
'0:00.830',-0.445
'0:00.832',-0.385
'0:00.834',-0.350
'0:00.836',-0.380
'0:00.838',-0.445
'0:00.840',-0.545
'0:00.842',-0.620
'0:00.844',-0.665
'0:00.846',-0.655
'0:00.848',-0.615
'0:00.850',-0.550
'0:00.852',-0.475
'0:00.854',-0.470
'0:00.856',-0.495
'0:00.858',-0.535
'0:00.860',-0.620
'0:00.862',-0.730
'0:00.864',-0.770
'0:00.866',-0.755
'0:00.868',-0.675
'0:00.870',-0.585
'0:00.872',-0.520
'0:00.874',-0.500
'0:00.876',-0.505
'0:00.878',-0.590
'0:00.880',-0.715
'0:00.882',-0.750
'0:00.884',-0.700
'0:00.886',-0.730
'0:00.888',-0.690
'0:00.890',-0.595
'0:00.892',-0.550
'0:00.894',-0.555
'0:00.896',-0.600
'0:00.898',-0.590
'0:00.900',-0.660
'0:00.902',-0.790
'0:00.904',-0.805
'0:00.906',-0.755
'0:00.908',-0.715
'0:00.910',-0.600
'0:00.912',-0.530
'0:00.914',-0.520
'0:00.916',-0.535
'0:00.918',-0.630
'0:00.920',-0.720
'0:00.922',-0.800
'0:00.924',-0.780
'0:00.926',-0.765
'0:00.928',-0.695
'0:00.930',-0.595
'0:00.932',-0.555
'0:00.934',-0.585
'0:00.936',-0.565
'0:00.938',-0.610
'0:00.940',-0.755
'0:00.942',-0.795
'0:00.944',-0.800
'0:00.946',-0.785
'0:00.948',-0.705
'0:00.950',-0.590
'0:00.952',-0.555
'0:00.954',-0.555
'0:00.956',-0.605
'0:00.958',-0.650
'0:00.960',-0.710
'0:00.962',-0.780
'0:00.964',-0.850
'0:00.966',-0.810
'0:00.968',-0.680
'0:00.970',-0.600
'0:00.972',-0.545
'0:00.974',-0.545
'0:00.976',-0.625
'0:00.978',-0.660
'0:00.980',-0.775
'0:00.982',-0.850
'0:00.984',-0.840
'0:00.986',-0.795
'0:00.988',-0.745
'0:00.990',-0.610
'0:00.992',-0.570
'0:00.994',-0.580
'0:00.996',-0.635
'0:00.998',-0.695
'0:01.000',-0.815
'0:01.002',-0.810
'0:01.004',-0.860
'0:01.006',-0.815
'0:01.008',-0.760
'0:01.010',-0.650
'0:01.012',-0.565
'0:01.014',-0.580
'0:01.016',-0.645
'0:01.018',-0.720
'0:01.020',-0.820
'0:01.022',-0.865
'0:01.024',-0.855
'0:01.026',-0.785
'0:01.028',-0.725
'0:01.030',-0.620
'0:01.032',-0.590
'0:01.034',-0.615
'0:01.036',-0.635
'0:01.038',-0.730
'0:01.040',-0.815
'0:01.042',-0.870
'0:01.044',-0.860
'0:01.046',-0.820
'0:01.048',-0.745
'0:01.050',-0.645
'0:01.052',-0.595
'0:01.054',-0.665
'0:01.056',-0.745
'0:01.058',-0.690
'0:01.060',-0.760
'0:01.062',-0.850
'0:01.064',-0.850
'0:01.066',-0.795
'0:01.068',-0.735
'0:01.070',-0.635
'0:01.072',-0.595
'0:01.074',-0.655
'0:01.076',-0.685
'0:01.078',-0.775
'0:01.080',-0.830
'0:01.082',-0.855
'0:01.084',-0.870
'0:01.086',-0.830
'0:01.088',-0.755
'0:01.090',-0.680
'0:01.092',-0.640
'0:01.094',-0.635
'0:01.096',-0.710
'0:01.098',-0.780
'0:01.100',-0.840
'0:01.102',-0.865
'0:01.104',-0.855
'0:01.106',-0.830
'0:01.108',-0.740
'0:01.110',-0.625
'0:01.112',-0.630
'0:01.114',-0.690
'0:01.116',-0.715
'0:01.118',-0.815
'0:01.120',-0.885
'0:01.122',-0.910
'0:01.124',-0.840
'0:01.126',-0.825
'0:01.128',-0.755
'0:01.130',-0.655
'0:01.132',-0.610
'0:01.134',-0.655
'0:01.136',-0.705
'0:01.138',-0.785
'0:01.140',-0.875
'0:01.142',-0.870
'0:01.144',-0.865
'0:01.146',-0.865
'0:01.148',-0.700
'0:01.150',-0.670
'0:01.152',-0.680
'0:01.154',-0.670
'0:01.156',-0.705
'0:01.158',-0.810
'0:01.160',-0.895
'0:01.162',-0.830
'0:01.164',-0.840
'0:01.166',-0.835
'0:01.168',-0.740
'0:01.170',-0.660
'0:01.172',-0.625
'0:01.174',-0.665
'0:01.176',-0.690
'0:01.178',-0.805
'0:01.180',-0.925
'0:01.182',-0.920
'0:01.184',-0.885
'0:01.186',-0.850
'0:01.188',-0.710
'0:01.190',-0.675
'0:01.192',-0.665
'0:01.194',-0.645
'0:01.196',-0.745
'0:01.198',-0.840
'0:01.200',-0.915
'0:01.202',-0.875
'0:01.204',-0.860
'0:01.206',-0.820
'0:01.208',-0.740
'0:01.210',-0.655
'0:01.212',-0.660
'0:01.214',-0.675
'0:01.216',-0.730
'0:01.218',-0.825
'0:01.220',-0.895
'0:01.222',-0.920
'0:01.224',-0.835
'0:01.226',-0.825
'0:01.228',-0.735
'0:01.230',-0.635
'0:01.232',-0.655
'0:01.234',-0.720
'0:01.236',-0.745
'0:01.238',-0.815
'0:01.240',-0.900
'0:01.242',-0.880
'0:01.244',-0.875
'0:01.246',-0.820
'0:01.248',-0.720
'0:01.250',-0.630
'0:01.252',-0.630
'0:01.254',-0.700
'0:01.256',-0.770
'0:01.258',-0.850
'0:01.260',-0.870
'0:01.262',-0.885
'0:01.264',-0.865
'0:01.266',-0.830
'0:01.268',-0.705
'0:01.270',-0.640
'0:01.272',-0.635
'0:01.274',-0.695
'0:01.276',-0.775
'0:01.278',-0.865
'0:01.280',-0.905
'0:01.282',-0.910
'0:01.284',-0.875
'0:01.286',-0.795
'0:01.288',-0.680
'0:01.290',-0.620
'0:01.292',-0.680
'0:01.294',-0.705
'0:01.296',-0.750
'0:01.298',-0.870
'0:01.300',-0.870
'0:01.302',-0.875
'0:01.304',-0.825
'0:01.306',-0.725
'0:01.308',-0.670
'0:01.310',-0.655
'0:01.312',-0.645
'0:01.314',-0.650
'0:01.316',-0.690
'0:01.318',-0.810
'0:01.320',-0.860
'0:01.322',-0.875
'0:01.324',-0.795
'0:01.326',-0.665
'0:01.328',-0.595
'0:01.330',-0.560
'0:01.332',-0.600
'0:01.334',-0.675
'0:01.336',-0.735
'0:01.338',-0.815
'0:01.340',-0.880
'0:01.342',-0.845
'0:01.344',-0.760
'0:01.346',-0.700
'0:01.348',-0.605
'0:01.350',-0.550
'0:01.352',-0.635
'0:01.354',-0.640
'0:01.356',-0.705
'0:01.358',-0.815
'0:01.360',-0.885
'0:01.362',-0.855
'0:01.364',-0.840
'0:01.366',-0.760
'0:01.368',-0.625
'0:01.370',-0.620
'0:01.372',-0.640
'0:01.374',-0.715
'0:01.376',-0.795
'0:01.378',-0.880
'0:01.380',-0.920
'0:01.382',-0.925
'0:01.384',-0.880
'0:01.386',-0.785
'0:01.388',-0.670
'0:01.390',-0.655
'0:01.392',-0.680
'0:01.394',-0.725
'0:01.396',-0.805
'0:01.398',-0.885
'0:01.400',-0.930
'0:01.402',-0.935
'0:01.404',-0.855
'0:01.406',-0.775
'0:01.408',-0.675
'0:01.410',-0.645
'0:01.412',-0.680
'0:01.414',-0.705
'0:01.416',-0.835
'0:01.418',-0.920
'0:01.420',-0.940
'0:01.422',-0.900
'0:01.424',-0.850
'0:01.426',-0.735
'0:01.428',-0.675
'0:01.430',-0.670
'0:01.432',-0.715
'0:01.434',-0.785
'0:01.436',-0.820
'0:01.438',-0.875
'0:01.440',-0.930
'0:01.442',-0.885
'0:01.444',-0.845
'0:01.446',-0.760
'0:01.448',-0.665
'0:01.450',-0.675
'0:01.452',-0.715
'0:01.454',-0.735
'0:01.456',-0.840
'0:01.458',-0.900
'0:01.460',-0.900
'0:01.462',-0.785
'0:01.464',-0.700
'0:01.466',-0.580
'0:01.468',-0.495
'0:01.470',-0.370
'0:01.472',-0.375
'0:01.474',-0.300
'0:01.476',-0.300
'0:01.478',-0.355
'0:01.480',-0.360
'0:01.482',-0.400
'0:01.484',-0.420
'0:01.486',-0.400
'0:01.488',-0.390
'0:01.490',-0.480
'0:01.492',-0.605
'0:01.494',-0.735
'0:01.496',-0.895
'0:01.498',-1.030
'0:01.500',-1.085
'0:01.502',-1.105
'0:01.504',-1.080
'0:01.506',-0.925
'0:01.508',-0.860
'0:01.510',-0.840
'0:01.512',-0.875
'0:01.514',-0.915
'0:01.516',-1.015
'0:01.518',-1.030
'0:01.520',-1.010
'0:01.522',-0.950
'0:01.524',-0.860
'0:01.526',-0.740
'0:01.528',-0.670
'0:01.530',-0.665
'0:01.532',-0.715
'0:01.534',-0.750
'0:01.536',-0.850
'0:01.538',-0.905
'0:01.540',-0.925
'0:01.542',-0.850
'0:01.544',-0.820
'0:01.546',-0.710
'0:01.548',-0.635
'0:01.550',-0.655
'0:01.552',-0.745
'0:01.554',-0.810
'0:01.556',-0.845
'0:01.558',-0.895
'0:01.560',-0.870
'0:01.562',-0.830
'0:01.564',-0.795
'0:01.566',-0.705
'0:01.568',-0.595
'0:01.570',-0.645
'0:01.572',-0.685
'0:01.574',-0.765
'0:01.576',-0.845
'0:01.578',-0.890
'0:01.580',-0.850
'0:01.582',-0.830
'0:01.584',-0.810
'0:01.586',-0.710
'0:01.588',-0.645
'0:01.590',-0.610
'0:01.592',-0.685
'0:01.594',-0.740
'0:01.596',-0.850
'0:01.598',-0.910
'0:01.600',-0.885
'0:01.602',-0.805
'0:01.604',-0.770
'0:01.606',-0.645
'0:01.608',-0.615
'0:01.610',-0.650
'0:01.612',-0.705
'0:01.614',-0.770
'0:01.616',-0.830
'0:01.618',-0.870
'0:01.620',-0.840
'0:01.622',-0.770
'0:01.624',-0.755
'0:01.626',-0.660
'0:01.628',-0.605
'0:01.630',-0.630
'0:01.632',-0.640
'0:01.634',-0.720
'0:01.636',-0.805
'0:01.638',-0.850
'0:01.640',-0.840
'0:01.642',-0.775
'0:01.644',-0.695
'0:01.646',-0.570
'0:01.648',-0.565
'0:01.650',-0.620
'0:01.652',-0.655
'0:01.654',-0.690
'0:01.656',-0.740
'0:01.658',-0.800
'0:01.660',-0.795
'0:01.662',-0.690
'0:01.664',-0.670
'0:01.666',-0.555
'0:01.668',-0.515
'0:01.670',-0.535
'0:01.672',-0.580
'0:01.674',-0.660
'0:01.676',-0.740
'0:01.678',-0.765
'0:01.680',-0.720
'0:01.682',-0.655
'0:01.684',-0.520
'0:01.686',-0.460
'0:01.688',-0.460
'0:01.690',-0.480
'0:01.692',-0.470
'0:01.694',-0.565
'0:01.696',-0.665
'0:01.698',-0.680
'0:01.700',-0.650
'0:01.702',-0.550
'0:01.704',-0.475
'0:01.706',-0.360
'0:01.708',-0.380
'0:01.710',-0.345
'0:01.712',-0.400
'0:01.714',-0.485
'0:01.716',-0.580
'0:01.718',-0.635
'0:01.720',-0.615
'0:01.722',-0.545
'0:01.724',-0.425
'0:01.726',-0.350
'0:01.728',-0.300
'0:01.730',-0.355
'0:01.732',-0.430
'0:01.734',-0.525
'0:01.736',-0.595
'0:01.738',-0.610
'0:01.740',-0.560
'0:01.742',-0.575
'0:01.744',-0.420
'0:01.746',-0.360
'0:01.748',-0.345
'0:01.750',-0.390
'0:01.752',-0.450
'0:01.754',-0.615
'0:01.756',-0.635
'0:01.758',-0.645
'0:01.760',-0.650
'0:01.762',-0.625
'0:01.764',-0.520
'0:01.766',-0.475
'0:01.768',-0.505
'0:01.770',-0.540
'0:01.772',-0.570
'0:01.774',-0.670
'0:01.776',-0.790
'0:01.778',-0.820
'0:01.780',-0.720
'0:01.782',-0.690
'0:01.784',-0.640
'0:01.786',-0.575
'0:01.788',-0.590
'0:01.790',-0.630
'0:01.792',-0.660
'0:01.794',-0.790
'0:01.796',-0.850
'0:01.798',-0.860
'0:01.800',-0.815
'0:01.802',-0.750
'0:01.804',-0.635
'0:01.806',-0.615
'0:01.808',-0.625
'0:01.810',-0.690
'0:01.812',-0.695
'0:01.814',-0.840
'0:01.816',-0.890
'0:01.818',-0.850
'0:01.820',-0.800
'0:01.822',-0.795
'0:01.824',-0.715
'0:01.826',-0.655
'0:01.828',-0.620
'0:01.830',-0.695
'0:01.832',-0.760
'0:01.834',-0.815
'0:01.836',-0.810
'0:01.838',-0.890
'0:01.840',-0.860
'0:01.842',-0.790
'0:01.844',-0.655
'0:01.846',-0.610
'0:01.848',-0.630
'0:01.850',-0.690
'0:01.852',-0.765
'0:01.854',-0.855
'0:01.856',-0.890
'0:01.858',-0.900
'0:01.860',-0.805
'0:01.862',-0.760
'0:01.864',-0.650
'0:01.866',-0.610
'0:01.868',-0.670
'0:01.870',-0.690
'0:01.872',-0.755
'0:01.874',-0.850
'0:01.876',-0.915
'0:01.878',-0.875
'0:01.880',-0.800
'0:01.882',-0.760
'0:01.884',-0.690
'0:01.886',-0.615
'0:01.888',-0.635
'0:01.890',-0.680
'0:01.892',-0.745
'0:01.894',-0.850
'0:01.896',-0.915
'0:01.898',-0.885
'0:01.900',-0.810
'0:01.902',-0.765
'0:01.904',-0.665
'0:01.906',-0.635
'0:01.908',-0.645
'0:01.910',-0.695
'0:01.912',-0.820
'0:01.914',-0.860
'0:01.916',-0.895
'0:01.918',-0.835
'0:01.920',-0.835
'0:01.922',-0.765
'0:01.924',-0.665
'0:01.926',-0.615
'0:01.928',-0.655
'0:01.930',-0.690
'0:01.932',-0.765
'0:01.934',-0.890
'0:01.936',-0.900
'0:01.938',-0.865
'0:01.940',-0.840
'0:01.942',-0.775
'0:01.944',-0.695
'0:01.946',-0.635
'0:01.948',-0.655
'0:01.950',-0.720
'0:01.952',-0.865
'0:01.954',-0.890
'0:01.956',-0.925
'0:01.958',-0.885
'0:01.960',-0.800
'0:01.962',-0.760
'0:01.964',-0.735
'0:01.966',-0.675
'0:01.968',-0.640
'0:01.970',-0.710
'0:01.972',-0.825
'0:01.974',-0.925
'0:01.976',-0.940
'0:01.978',-0.860
'0:01.980',-0.855
'0:01.982',-0.760
'0:01.984',-0.680
'0:01.986',-0.650
'0:01.988',-0.705
'0:01.990',-0.755
'0:01.992',-0.850
'0:01.994',-0.920
'0:01.996',-0.950
'0:01.998',-0.865
'0:02.000',-0.850
'0:02.002',-0.750
'0:02.004',-0.700
'0:02.006',-0.675
'0:02.008',-0.700
'0:02.010',-0.730
'0:02.012',-0.840
'0:02.014',-0.910
'0:02.016',-0.900
'0:02.018',-0.935
'0:02.020',-0.860
'0:02.022',-0.730
'0:02.024',-0.670
'0:02.026',-0.660
'0:02.028',-0.710
'0:02.030',-0.775
'0:02.032',-0.860
'0:02.034',-0.935
'0:02.036',-0.960
'0:02.038',-0.935
'0:02.040',-0.860
'0:02.042',-0.735
'0:02.044',-0.675
'0:02.046',-0.690
'0:02.048',-0.730
'0:02.050',-0.725
'0:02.052',-0.845
'0:02.054',-0.970
'0:02.056',-0.985
'0:02.058',-0.915
'0:02.060',-0.840
'0:02.062',-0.740
'0:02.064',-0.690
'0:02.066',-0.695
'0:02.068',-0.730
'0:02.070',-0.775
'0:02.072',-0.885
'0:02.074',-0.940
'0:02.076',-0.920
'0:02.078',-0.925
'0:02.080',-0.855
'0:02.082',-0.780
'0:02.084',-0.625
'0:02.086',-0.690
'0:02.088',-0.740
'0:02.090',-0.755
'0:02.092',-0.875
'0:02.094',-0.955
'0:02.096',-0.945
'0:02.098',-0.895
'0:02.100',-0.830
'0:02.102',-0.730
'0:02.104',-0.675
'0:02.106',-0.680
'0:02.108',-0.750
'0:02.110',-0.775
'0:02.112',-0.855
'0:02.114',-0.980
'0:02.116',-0.950
'0:02.118',-0.855
'0:02.120',-0.840
'0:02.122',-0.730
'0:02.124',-0.645
'0:02.126',-0.675
'0:02.128',-0.755
'0:02.130',-0.800
'0:02.132',-0.900
'0:02.134',-0.940
'0:02.136',-0.925
'0:02.138',-0.880
'0:02.140',-0.840
'0:02.142',-0.745
'0:02.144',-0.650
'0:02.146',-0.695
'0:02.148',-0.725
'0:02.150',-0.815
'0:02.152',-0.885
'0:02.154',-0.920
'0:02.156',-0.915
'0:02.158',-0.895
'0:02.160',-0.830
'0:02.162',-0.745
'0:02.164',-0.680
'0:02.166',-0.690
'0:02.168',-0.710
'0:02.170',-0.760
'0:02.172',-0.875
'0:02.174',-0.950
'0:02.176',-0.920
'0:02.178',-0.890
'0:02.180',-0.730
'0:02.182',-0.720
'0:02.184',-0.630
'0:02.186',-0.685
'0:02.188',-0.750
'0:02.190',-0.775
'0:02.192',-0.880
'0:02.194',-0.915
'0:02.196',-0.910
'0:02.198',-0.865
'0:02.200',-0.785
'0:02.202',-0.690
'0:02.204',-0.650
'0:02.206',-0.685
'0:02.208',-0.775
'0:02.210',-0.830
'0:02.212',-0.900
'0:02.214',-0.875
'0:02.216',-0.880
'0:02.218',-0.825
'0:02.220',-0.725
'0:02.222',-0.655
'0:02.224',-0.615
'0:02.226',-0.600
'0:02.228',-0.695
'0:02.230',-0.755
'0:02.232',-0.815
'0:02.234',-0.850
'0:02.236',-0.810
'0:02.238',-0.795
'0:02.240',-0.710
'0:02.242',-0.630
'0:02.244',-0.590
'0:02.246',-0.680
'0:02.248',-0.665
'0:02.250',-0.735
'0:02.252',-0.845
'0:02.254',-0.855
'0:02.256',-0.820
'0:02.258',-0.780
'0:02.260',-0.665
'0:02.262',-0.615
'0:02.264',-0.595
'0:02.266',-0.650
'0:02.268',-0.685
'0:02.270',-0.790
'0:02.272',-0.880
'0:02.274',-0.930
'0:02.276',-0.910
'0:02.278',-0.830
'0:02.280',-0.725
'0:02.282',-0.675
'0:02.284',-0.655
'0:02.286',-0.735
'0:02.288',-0.740
'0:02.290',-0.855
'0:02.292',-0.905
'0:02.294',-0.925
'0:02.296',-0.885
'0:02.298',-0.840
'0:02.300',-0.735
'0:02.302',-0.700
'0:02.304',-0.690
'0:02.306',-0.705
'0:02.308',-0.750
'0:02.310',-0.860
'0:02.312',-0.910
'0:02.314',-0.930
'0:02.316',-0.890
'0:02.318',-0.850
'0:02.320',-0.725
'0:02.322',-0.675
'0:02.324',-0.670
'0:02.326',-0.735
'0:02.328',-0.730
'0:02.330',-0.820
'0:02.332',-0.905
'0:02.334',-0.935
'0:02.336',-0.890
'0:02.338',-0.865
'0:02.340',-0.760
'0:02.342',-0.685
'0:02.344',-0.655
'0:02.346',-0.695
'0:02.348',-0.785
'0:02.350',-0.850
'0:02.352',-0.950
'0:02.354',-0.935
'0:02.356',-0.860
'0:02.358',-0.865
'0:02.360',-0.750
'0:02.362',-0.675
'0:02.364',-0.655
'0:02.366',-0.725
'0:02.368',-0.720
'0:02.370',-0.775
'0:02.372',-0.825
'0:02.374',-0.750
'0:02.376',-0.680
'0:02.378',-0.565
'0:02.380',-0.425
'0:02.382',-0.255
'0:02.384',-0.205
'0:02.386',-0.215
'0:02.388',-0.125
'0:02.390',-0.295
'0:02.392',-0.445
'0:02.394',-0.465
'0:02.396',-0.555
'0:02.398',-0.625
'0:02.400',-0.540
'0:02.402',-0.605
'0:02.404',-0.670
'0:02.406',-0.820
'0:02.408',-0.905
'0:02.410',-1.070
'0:02.412',-1.140
'0:02.414',-1.145
'0:02.416',-1.020
'0:02.418',-0.990
'0:02.420',-0.875
'0:02.422',-0.810
'0:02.424',-0.805
'0:02.426',-0.835
'0:02.428',-0.820
'0:02.430',-0.900
'0:02.432',-0.930
'0:02.434',-0.900
'0:02.436',-0.870
'0:02.438',-0.785
'0:02.440',-0.665
'0:02.442',-0.630
'0:02.444',-0.640
'0:02.446',-0.695
'0:02.448',-0.775
'0:02.450',-0.925
'0:02.452',-0.885
'0:02.454',-0.860
'0:02.456',-0.795
'0:02.458',-0.750
'0:02.460',-0.660
'0:02.462',-0.610
'0:02.464',-0.605
'0:02.466',-0.690
'0:02.468',-0.765
'0:02.470',-0.835
'0:02.472',-0.895
'0:02.474',-0.860
'0:02.476',-0.795
'0:02.478',-0.730
'0:02.480',-0.675
'0:02.482',-0.635
'0:02.484',-0.610
'0:02.486',-0.655
'0:02.488',-0.770
'0:02.490',-0.860
'0:02.492',-0.875
'0:02.494',-0.845
'0:02.496',-0.765
'0:02.498',-0.710
'0:02.500',-0.650
'0:02.502',-0.605
'0:02.504',-0.620
'0:02.506',-0.650
'0:02.508',-0.695
'0:02.510',-0.840
'0:02.512',-0.880
'0:02.514',-0.800
'0:02.516',-0.765
'0:02.518',-0.725
'0:02.520',-0.560
'0:02.522',-0.510
'0:02.524',-0.605
'0:02.526',-0.655
'0:02.528',-0.755
'0:02.530',-0.790
'0:02.532',-0.890
'0:02.534',-0.860
'0:02.536',-0.685
'0:02.538',-0.640
'0:02.540',-0.570
'0:02.542',-0.575
'0:02.544',-0.630
'0:02.546',-0.650
'0:02.548',-0.720
'0:02.550',-0.800
'0:02.552',-0.775
'0:02.554',-0.750
'0:02.556',-0.745
'0:02.558',-0.650
'0:02.560',-0.540
'0:02.562',-0.545
'0:02.564',-0.510
'0:02.566',-0.540
'0:02.568',-0.680
'0:02.570',-0.760
'0:02.572',-0.770
'0:02.574',-0.750
'0:02.576',-0.635
'0:02.578',-0.520
'0:02.580',-0.395
'0:02.582',-0.505
'0:02.584',-0.470
'0:02.586',-0.415
'0:02.588',-0.645
'0:02.590',-0.710
'0:02.592',-0.725
'0:02.594',-0.710
'0:02.596',-0.525
'0:02.598',-0.490
'0:02.600',-0.420
'0:02.602',-0.260
'0:02.604',-0.345
'0:02.606',-0.415
'0:02.608',-0.465
'0:02.610',-0.620
'0:02.612',-0.650
'0:02.614',-0.580
'0:02.616',-0.480
'0:02.618',-0.365
'0:02.620',-0.355
'0:02.622',-0.250
'0:02.624',-0.250
'0:02.626',-0.340
'0:02.628',-0.475
'0:02.630',-0.475
'0:02.632',-0.550
'0:02.634',-0.490
'0:02.636',-0.370
'0:02.638',-0.320
'0:02.640',-0.265
'0:02.642',-0.305
'0:02.644',-0.250
'0:02.646',-0.325
'0:02.648',-0.495
'0:02.650',-0.480
'0:02.652',-0.545
'0:02.654',-0.555
'0:02.656',-0.465
'0:02.658',-0.370
'0:02.660',-0.355
'0:02.662',-0.275
'0:02.664',-0.365
'0:02.666',-0.515
'0:02.668',-0.665
'0:02.670',-0.535
'0:02.672',-0.660
'0:02.674',-0.670
'0:02.676',-0.560
'0:02.678',-0.500
'0:02.680',-0.460
'0:02.682',-0.530
'0:02.684',-0.560
'0:02.686',-0.595
'0:02.688',-0.675
'0:02.690',-0.670
'0:02.692',-0.750
'0:02.694',-0.705
'0:02.696',-0.760
'0:02.698',-0.560
'0:02.700',-0.480
'0:02.702',-0.445
'0:02.704',-0.560
'0:02.706',-0.620
'0:02.708',-0.745
'0:02.710',-0.810
'0:02.712',-0.880
'0:02.714',-0.810
'0:02.716',-0.705
'0:02.718',-0.555
'0:02.720',-0.600
'0:02.722',-0.570
'0:02.724',-0.640
'0:02.726',-0.725
'0:02.728',-0.770
'0:02.730',-0.780
'0:02.732',-0.770
'0:02.734',-0.755
'0:02.736',-0.660
'0:02.738',-0.645
'0:02.740',-0.505
'0:02.742',-0.630
'0:02.744',-0.620
'0:02.746',-0.680
'0:02.748',-0.840
'0:02.750',-0.835
'0:02.752',-0.870
'0:02.754',-0.760
'0:02.756',-0.690
'0:02.758',-0.615
'0:02.760',-0.540
'0:02.762',-0.580
'0:02.764',-0.680
'0:02.766',-0.700
'0:02.768',-0.790
'0:02.770',-0.795
'0:02.772',-0.750
'0:02.774',-0.685
'0:02.776',-0.675
'0:02.778',-0.645
'0:02.780',-0.585
'0:02.782',-0.540
'0:02.784',-0.600
'0:02.786',-0.695
'0:02.788',-0.770
'0:02.790',-0.800
'0:02.792',-0.780
'0:02.794',-0.790
'0:02.796',-0.675
'0:02.798',-0.580
'0:02.800',-0.530
'0:02.802',-0.560
'0:02.804',-0.655
'0:02.806',-0.725
'0:02.808',-0.750
'0:02.810',-0.840
'0:02.812',-0.825
'0:02.814',-0.785
'0:02.816',-0.695
'0:02.818',-0.610
'0:02.820',-0.510
'0:02.822',-0.550
'0:02.824',-0.565
'0:02.826',-0.735
'0:02.828',-0.805
'0:02.830',-0.855
'0:02.832',-0.845
'0:02.834',-0.770
'0:02.836',-0.655
'0:02.838',-0.635
'0:02.840',-0.610
'0:02.842',-0.625
'0:02.844',-0.670
'0:02.846',-0.795
'0:02.848',-0.835
'0:02.850',-0.800
'0:02.852',-0.785
'0:02.854',-0.785
'0:02.856',-0.655
'0:02.858',-0.630
'0:02.860',-0.600
'0:02.862',-0.545
'0:02.864',-0.630
'0:02.866',-0.740
'0:02.868',-0.840
'0:02.870',-0.820
'0:02.872',-0.780
'0:02.874',-0.745
'0:02.876',-0.670
'0:02.878',-0.580
'0:02.880',-0.545
'0:02.882',-0.615
'0:02.884',-0.640
'0:02.886',-0.750
'0:02.888',-0.795
'0:02.890',-0.830
'0:02.892',-0.810
'0:02.894',-0.780
'0:02.896',-0.710
'0:02.898',-0.565
'0:02.900',-0.460
'0:02.902',-0.565
'0:02.904',-0.685
'0:02.906',-0.800
'0:02.908',-0.880
'0:02.910',-0.895
'0:02.912',-0.825
'0:02.914',-0.790
'0:02.916',-0.635
'0:02.918',-0.645
'0:02.920',-0.650
'0:02.922',-0.625
'0:02.924',-0.645
'0:02.926',-0.760
'0:02.928',-0.875
'0:02.930',-0.875
'0:02.932',-0.815
'0:02.934',-0.755
'0:02.936',-0.660
'0:02.938',-0.530
'0:02.940',-0.590
'0:02.942',-0.575
'0:02.944',-0.665
'0:02.946',-0.885
'0:02.948',-0.795
'0:02.950',-0.825
'0:02.952',-0.825
'0:02.954',-0.755
'0:02.956',-0.620
'0:02.958',-0.600
'0:02.960',-0.600
'0:02.962',-0.645
'0:02.964',-0.685
'0:02.966',-0.815
'0:02.968',-0.870
'0:02.970',-0.890
'0:02.972',-0.835
'0:02.974',-0.710
'0:02.976',-0.615
'0:02.978',-0.545
'0:02.980',-0.565
'0:02.982',-0.605
'0:02.984',-0.715
'0:02.986',-0.790
'0:02.988',-0.825
'0:02.990',-0.880
'0:02.992',-0.825
'0:02.994',-0.755
'0:02.996',-0.635
'0:02.998',-0.555
'0:03.000',-0.590
'0:03.002',-0.675
'0:03.004',-0.660
'0:03.006',-0.800
'0:03.008',-0.830
'0:03.010',-0.795
'0:03.012',-0.780
'0:03.014',-0.730
'0:03.016',-0.625
'0:03.018',-0.585
'0:03.020',-0.585
'0:03.022',-0.635
'0:03.024',-0.695
'0:03.026',-0.810
'0:03.028',-0.775
'0:03.030',-0.790
'0:03.032',-0.725
'0:03.034',-0.615
'0:03.036',-0.525
'0:03.038',-0.520
'0:03.040',-0.535
'0:03.042',-0.535
'0:03.044',-0.655
'0:03.046',-0.735
'0:03.048',-0.770
'0:03.050',-0.710
'0:03.052',-0.715
'0:03.054',-0.620
'0:03.056',-0.495
'0:03.058',-0.475
'0:03.060',-0.485
'0:03.062',-0.545
'0:03.064',-0.640
'0:03.066',-0.710
'0:03.068',-0.780
'0:03.070',-0.770
'0:03.072',-0.720
'0:03.074',-0.655
'0:03.076',-0.585
'0:03.078',-0.505
'0:03.080',-0.625
'0:03.082',-0.720
'0:03.084',-0.665
'0:03.086',-0.780
'0:03.088',-0.860
'0:03.090',-0.805
'0:03.092',-0.760
'0:03.094',-0.685
'0:03.096',-0.605
'0:03.098',-0.575
'0:03.100',-0.615
'0:03.102',-0.625
'0:03.104',-0.725
'0:03.106',-0.805
'0:03.108',-0.865
'0:03.110',-0.820
'0:03.112',-0.780
'0:03.114',-0.750
'0:03.116',-0.595
'0:03.118',-0.570
'0:03.120',-0.585
'0:03.122',-0.580
'0:03.124',-0.775
'0:03.126',-0.810
'0:03.128',-0.825
'0:03.130',-0.805
'0:03.132',-0.755
'0:03.134',-0.675
'0:03.136',-0.575
'0:03.138',-0.535
'0:03.140',-0.610
'0:03.142',-0.650
'0:03.144',-0.750
'0:03.146',-0.820
'0:03.148',-0.860
'0:03.150',-0.820
'0:03.152',-0.730
'0:03.154',-0.630
'0:03.156',-0.570
'0:03.158',-0.515
'0:03.160',-0.605
'0:03.162',-0.695
'0:03.164',-0.765
'0:03.166',-0.840
'0:03.168',-0.805
'0:03.170',-0.800
'0:03.172',-0.770
'0:03.174',-0.655
'0:03.176',-0.540
'0:03.178',-0.510
'0:03.180',-0.475
'0:03.182',-0.410
'0:03.184',-0.490
'0:03.186',-0.565
'0:03.188',-0.490
'0:03.190',-0.295
'0:03.192',-0.165
'0:03.194',-0.005
'0:03.196',0.080
'0:03.198',0.045
'0:03.200',-0.115
'0:03.202',-0.280
'0:03.204',-0.450
'0:03.206',-0.590
'0:03.208',-0.655
'0:03.210',-0.740
'0:03.212',-0.820
'0:03.214',-0.730
'0:03.216',-0.750
'0:03.218',-0.760
'0:03.220',-0.795
'0:03.222',-0.800
'0:03.224',-0.950
'0:03.226',-1.005
'0:03.228',-0.995
'0:03.230',-0.920
'0:03.232',-0.870
'0:03.234',-0.680
'0:03.236',-0.645
'0:03.238',-0.590
'0:03.240',-0.650
'0:03.242',-0.655
'0:03.244',-0.745
'0:03.246',-0.805
'0:03.248',-0.800
'0:03.250',-0.745
'0:03.252',-0.680
'0:03.254',-0.595
'0:03.256',-0.540
'0:03.258',-0.490
'0:03.260',-0.565
'0:03.262',-0.630
'0:03.264',-0.705
'0:03.266',-0.800
'0:03.268',-0.760
'0:03.270',-0.785
'0:03.272',-0.675
'0:03.274',-0.570
'0:03.276',-0.560
'0:03.278',-0.510
'0:03.280',-0.535
'0:03.282',-0.600
'0:03.284',-0.730
'0:03.286',-0.815
'0:03.288',-0.745
'0:03.290',-0.725
'0:03.292',-0.650
'0:03.294',-0.540
'0:03.296',-0.490
'0:03.298',-0.470
'0:03.300',-0.540
'0:03.302',-0.585
'0:03.304',-0.685
'0:03.306',-0.745
'0:03.308',-0.755
'0:03.310',-0.640
'0:03.312',-0.595
'0:03.314',-0.485
'0:03.316',-0.470
'0:03.318',-0.500
'0:03.320',-0.555
'0:03.322',-0.595
'0:03.324',-0.695
'0:03.326',-0.730
'0:03.328',-0.735
'0:03.330',-0.700
'0:03.332',-0.590
'0:03.334',-0.525
'0:03.336',-0.515
'0:03.338',-0.475
'0:03.340',-0.420
'0:03.342',-0.555
'0:03.344',-0.615
'0:03.346',-0.715
'0:03.348',-0.670
'0:03.350',-0.605
'0:03.352',-0.605
'0:03.354',-0.500
'0:03.356',-0.470
'0:03.358',-0.470
'0:03.360',-0.445
'0:03.362',-0.550
'0:03.364',-0.700
'0:03.366',-0.660
'0:03.368',-0.605
'0:03.370',-0.555
'0:03.372',-0.465
'0:03.374',-0.410
'0:03.376',-0.365
'0:03.378',-0.395
'0:03.380',-0.410
'0:03.382',-0.545
'0:03.384',-0.575
'0:03.386',-0.580
'0:03.388',-0.550
'0:03.390',-0.505
'0:03.392',-0.410
'0:03.394',-0.345
'0:03.396',-0.325
'0:03.398',-0.310
'0:03.400',-0.415
'0:03.402',-0.425
'0:03.404',-0.540
'0:03.406',-0.520
'0:03.408',-0.515
'0:03.410',-0.425
'0:03.412',-0.385
'0:03.414',-0.270
'0:03.416',-0.135
'0:03.418',-0.235
'0:03.420',-0.295
'0:03.422',-0.340
'0:03.424',-0.435
'0:03.426',-0.440
'0:03.428',-0.410
'0:03.430',-0.370
'0:03.432',-0.230
'0:03.434',-0.160
'0:03.436',-0.095
'0:03.438',-0.175
'0:03.440',-0.210
'0:03.442',-0.295
'0:03.444',-0.370
'0:03.446',-0.400
'0:03.448',-0.330
'0:03.450',-0.335
'0:03.452',-0.210
'0:03.454',-0.155
'0:03.456',-0.160
'0:03.458',-0.225
'0:03.460',-0.260
'0:03.462',-0.355
'0:03.464',-0.435
'0:03.466',-0.490
'0:03.468',-0.450
'0:03.470',-0.370
'0:03.472',-0.270
'0:03.474',-0.240
'0:03.476',-0.285
'0:03.478',-0.325
'0:03.480',-0.350
'0:03.482',-0.505
'0:03.484',-0.590
'0:03.486',-0.595
'0:03.488',-0.545
'0:03.490',-0.525
'0:03.492',-0.425
'0:03.494',-0.380
'0:03.496',-0.380
'0:03.498',-0.460
'0:03.500',-0.490
'0:03.502',-0.635
'0:03.504',-0.615
'0:03.506',-0.695
'0:03.508',-0.710
'0:03.510',-0.585
'0:03.512',-0.505
'0:03.514',-0.375
'0:03.516',-0.395
'0:03.518',-0.415
'0:03.520',-0.545
'0:03.522',-0.615
'0:03.524',-0.675
'0:03.526',-0.695
'0:03.528',-0.645
'0:03.530',-0.570
'0:03.532',-0.510
'0:03.534',-0.485
'0:03.536',-0.460
'0:03.538',-0.520
'0:03.540',-0.625
'0:03.542',-0.655
'0:03.544',-0.715
'0:03.546',-0.685
'0:03.548',-0.600
'0:03.550',-0.590
'0:03.552',-0.500
'0:03.554',-0.445
'0:03.556',-0.480
'0:03.558',-0.475
'0:03.560',-0.545
'0:03.562',-0.630
'0:03.564',-0.690
'0:03.566',-0.695
'0:03.568',-0.650
'0:03.570',-0.600
'0:03.572',-0.470
'0:03.574',-0.475
'0:03.576',-0.475
'0:03.578',-0.510
'0:03.580',-0.600
'0:03.582',-0.635
'0:03.584',-0.725
'0:03.586',-0.675
'0:03.588',-0.650
'0:03.590',-0.600
'0:03.592',-0.510
'0:03.594',-0.430
'0:03.596',-0.440
'0:03.598',-0.505
'0:03.600',-0.550
'0:03.602',-0.680
'0:03.604',-0.700
'0:03.606',-0.655
'0:03.608',-0.635
'0:03.610',-0.570
'0:03.612',-0.425
'0:03.614',-0.395
'0:03.616',-0.470
'0:03.618',-0.550
'0:03.620',-0.625
'0:03.622',-0.615
'0:03.624',-0.650
'0:03.626',-0.680
'0:03.628',-0.650
'0:03.630',-0.590
'0:03.632',-0.505
'0:03.634',-0.420
'0:03.636',-0.425
'0:03.638',-0.490
'0:03.640',-0.610
'0:03.642',-0.710
'0:03.644',-0.695
'0:03.646',-0.715
'0:03.648',-0.680
'0:03.650',-0.540
'0:03.652',-0.510
'0:03.654',-0.465
'0:03.656',-0.545
'0:03.658',-0.545
'0:03.660',-0.590
'0:03.662',-0.720
'0:03.664',-0.720
'0:03.666',-0.680
'0:03.668',-0.645
'0:03.670',-0.570
'0:03.672',-0.500
'0:03.674',-0.435
'0:03.676',-0.480
'0:03.678',-0.550
'0:03.680',-0.640
'0:03.682',-0.695
'0:03.684',-0.730
'0:03.686',-0.725
'0:03.688',-0.620
'0:03.690',-0.585
'0:03.692',-0.455
'0:03.694',-0.435
'0:03.696',-0.525
'0:03.698',-0.525
'0:03.700',-0.605
'0:03.702',-0.720
'0:03.704',-0.705
'0:03.706',-0.730
'0:03.708',-0.650
'0:03.710',-0.565
'0:03.712',-0.440
'0:03.714',-0.465
'0:03.716',-0.550
'0:03.718',-0.600
'0:03.720',-0.665
'0:03.722',-0.735
'0:03.724',-0.740
'0:03.726',-0.715
'0:03.728',-0.675
'0:03.730',-0.540
'0:03.732',-0.495
'0:03.734',-0.420
'0:03.736',-0.565
'0:03.738',-0.590
'0:03.740',-0.640
'0:03.742',-0.750
'0:03.744',-0.760
'0:03.746',-0.630
'0:03.748',-0.665
'0:03.750',-0.500
'0:03.752',-0.510
'0:03.754',-0.475
'0:03.756',-0.445
'0:03.758',-0.530
'0:03.760',-0.630
'0:03.762',-0.695
'0:03.764',-0.690
'0:03.766',-0.645
'0:03.768',-0.580
'0:03.770',-0.475
'0:03.772',-0.475
'0:03.774',-0.445
'0:03.776',-0.460
'0:03.778',-0.475
'0:03.780',-0.585
'0:03.782',-0.705
'0:03.784',-0.685
'0:03.786',-0.640
'0:03.788',-0.595
'0:03.790',-0.465
'0:03.792',-0.445
'0:03.794',-0.450
'0:03.796',-0.495
'0:03.798',-0.560
'0:03.800',-0.690
'0:03.802',-0.720
'0:03.804',-0.745
'0:03.806',-0.730
'0:03.808',-0.665
'0:03.810',-0.570
'0:03.812',-0.540
'0:03.814',-0.515
'0:03.816',-0.545
'0:03.818',-0.645
'0:03.820',-0.710
'0:03.822',-0.795
'0:03.824',-0.800
'0:03.826',-0.710
'0:03.828',-0.630
'0:03.830',-0.575
'0:03.832',-0.530
'0:03.834',-0.565
'0:03.836',-0.590
'0:03.838',-0.655
'0:03.840',-0.765
'0:03.842',-0.770
'0:03.844',-0.755
'0:03.846',-0.765
'0:03.848',-0.675
'0:03.850',-0.615
'0:03.852',-0.565
'0:03.854',-0.535
'0:03.856',-0.605
'0:03.858',-0.635
'0:03.860',-0.815
'0:03.862',-0.815
'0:03.864',-0.800
'0:03.866',-0.800
'0:03.868',-0.620
'0:03.870',-0.625
'0:03.872',-0.545
'0:03.874',-0.595
'0:03.876',-0.685
'0:03.878',-0.675
'0:03.880',-0.775
'0:03.882',-0.840
'0:03.884',-0.830
'0:03.886',-0.750
'0:03.888',-0.680
'0:03.890',-0.545
'0:03.892',-0.560
'0:03.894',-0.610
'0:03.896',-0.690
'0:03.898',-0.750
'0:03.900',-0.790
'0:03.902',-0.870
'0:03.904',-0.885
'0:03.906',-0.815
'0:03.908',-0.670
'0:03.910',-0.565
'0:03.912',-0.450
'0:03.914',-0.425
'0:03.916',-0.410
'0:03.918',-0.515
'0:03.920',-0.480
'0:03.922',-0.380
'0:03.924',-0.285
'0:03.926',-0.165
'0:03.928',-0.045
'0:03.930',-0.005
'0:03.932',-0.055
'0:03.934',-0.150
'0:03.936',-0.360
'0:03.938',-0.505
'0:03.940',-0.650
'0:03.942',-0.795
'0:03.944',-0.945
'0:03.946',-0.960
'0:03.948',-0.840
'0:03.950',-0.910
'0:03.952',-0.845
'0:03.954',-0.775
'0:03.956',-0.925
'0:03.958',-0.990
'0:03.960',-1.020
'0:03.962',-1.030
'0:03.964',-1.010
'0:03.966',-0.960
'0:03.968',-0.810
'0:03.970',-0.740
'0:03.972',-0.655
'0:03.974',-0.655
'0:03.976',-0.675
'0:03.978',-0.765
'0:03.980',-0.915
'0:03.982',-0.900
'0:03.984',-0.805
'0:03.986',-0.765
'0:03.988',-0.640
'0:03.990',-0.675
'0:03.992',-0.675
'0:03.994',-0.655
'0:03.996',-0.720
'0:03.998',-0.735
'0:04.000',-0.830
'0:04.002',-0.845
'0:04.004',-0.775
'0:04.006',-0.770
'0:04.008',-0.715
'0:04.010',-0.625
'0:04.012',-0.620
'0:04.014',-0.640
'0:04.016',-0.665
'0:04.018',-0.725
'0:04.020',-0.895
'0:04.022',-0.855
'0:04.024',-0.865
'0:04.026',-0.860
'0:04.028',-0.665
'0:04.030',-0.570
'0:04.032',-0.635
'0:04.034',-0.675
'0:04.036',-0.670
'0:04.038',-0.820
'0:04.040',-0.845
'0:04.042',-0.845
'0:04.044',-0.830
'0:04.046',-0.855
'0:04.048',-0.675
'0:04.050',-0.605
'0:04.052',-0.595
'0:04.054',-0.670
'0:04.056',-0.700
'0:04.058',-0.790
'0:04.060',-0.915
'0:04.062',-0.875
'0:04.064',-0.810
'0:04.066',-0.790
'0:04.068',-0.635
'0:04.070',-0.605
'0:04.072',-0.610
'0:04.074',-0.670
'0:04.076',-0.720
'0:04.078',-0.810
'0:04.080',-0.840
'0:04.082',-0.825
'0:04.084',-0.815
'0:04.086',-0.740
'0:04.088',-0.680
'0:04.090',-0.635
'0:04.092',-0.630
'0:04.094',-0.700
'0:04.096',-0.700
'0:04.098',-0.795
'0:04.100',-0.880
'0:04.102',-0.810
'0:04.104',-0.785
'0:04.106',-0.730
'0:04.108',-0.595
'0:04.110',-0.510
'0:04.112',-0.515
'0:04.114',-0.595
'0:04.116',-0.645
'0:04.118',-0.790
'0:04.120',-0.780
'0:04.122',-0.760
'0:04.124',-0.700
'0:04.126',-0.670
'0:04.128',-0.555
'0:04.130',-0.445
'0:04.132',-0.505
'0:04.134',-0.535
'0:04.136',-0.650
'0:04.138',-0.700
'0:04.140',-0.710
'0:04.142',-0.685
'0:04.144',-0.620
'0:04.146',-0.600
'0:04.148',-0.460
'0:04.150',-0.395
'0:04.152',-0.435
'0:04.154',-0.505
'0:04.156',-0.530
'0:04.158',-0.595
'0:04.160',-0.655
'0:04.162',-0.630
'0:04.164',-0.600
'0:04.166',-0.505
'0:04.168',-0.395
'0:04.170',-0.360
'0:04.172',-0.370
'0:04.174',-0.465
'0:04.176',-0.525
'0:04.178',-0.625
'0:04.180',-0.630
'0:04.182',-0.580
'0:04.184',-0.600
'0:04.186',-0.555
'0:04.188',-0.430
'0:04.190',-0.375
'0:04.192',-0.445
'0:04.194',-0.550
'0:04.196',-0.620
'0:04.198',-0.760
'0:04.200',-0.705
'0:04.202',-0.700
'0:04.204',-0.685
'0:04.206',-0.595
'0:04.208',-0.545
'0:04.210',-0.520
'0:04.212',-0.580
'0:04.214',-0.650
'0:04.216',-0.770
'0:04.218',-0.830
'0:04.220',-0.940
'0:04.222',-0.815
'0:04.224',-0.775
'0:04.226',-0.765
'0:04.228',-0.715
'0:04.230',-0.650
'0:04.232',-0.705
'0:04.234',-0.770
'0:04.236',-0.845
'0:04.238',-0.935
'0:04.240',-1.020
'0:04.242',-0.950
'0:04.244',-0.935
'0:04.246',-0.815
'0:04.248',-0.765
'0:04.250',-0.705
'0:04.252',-0.795
'0:04.254',-0.865
'0:04.256',-0.950
'0:04.258',-1.040
'0:04.260',-1.020
'0:04.262',-0.995
'0:04.264',-0.990
'0:04.266',-0.780
'0:04.268',-0.755
'0:04.270',-0.760
'0:04.272',-0.820
'0:04.274',-0.855
'0:04.276',-0.985
'0:04.278',-0.975
'0:04.280',-1.070
'0:04.282',-0.985
'0:04.284',-0.985
'0:04.286',-0.880
'0:04.288',-0.800
'0:04.290',-0.790
'0:04.292',-0.805
'0:04.294',-0.885
'0:04.296',-0.970
'0:04.298',-1.025
'0:04.300',-1.085
'0:04.302',-1.015
'0:04.304',-0.930
'0:04.306',-0.865
'0:04.308',-0.820
'0:04.310',-0.790
'0:04.312',-0.825
'0:04.314',-0.870
'0:04.316',-1.015
'0:04.318',-1.085
'0:04.320',-1.040
'0:04.322',-1.030
'0:04.324',-0.970
'0:04.326',-0.895
'0:04.328',-0.810
'0:04.330',-0.815
'0:04.332',-0.855
'0:04.334',-0.895
'0:04.336',-1.000
'0:04.338',-1.055
'0:04.340',-1.075
'0:04.342',-1.000
'0:04.344',-1.020
'0:04.346',-0.880
'0:04.348',-0.805
'0:04.350',-0.845
'0:04.352',-0.860
'0:04.354',-1.005
'0:04.356',-1.045
'0:04.358',-1.065
'0:04.360',-1.105
'0:04.362',-1.080
'0:04.364',-0.995
'0:04.366',-0.875
'0:04.368',-0.850
'0:04.370',-0.855
'0:04.372',-0.905
'0:04.374',-0.950
'0:04.376',-1.065
'0:04.378',-1.100
'0:04.380',-1.070
'0:04.382',-1.065
'0:04.384',-0.995
'0:04.386',-0.930
'0:04.388',-0.860
'0:04.390',-0.780
'0:04.392',-0.895
'0:04.394',-0.940
'0:04.396',-1.065
'0:04.398',-1.095
'0:04.400',-1.160
'0:04.402',-1.065
'0:04.404',-0.995
'0:04.406',-0.890
'0:04.408',-0.890
'0:04.410',-0.850
'0:04.412',-0.860
'0:04.414',-0.920
'0:04.416',-1.045
'0:04.418',-1.090
'0:04.420',-1.065
'0:04.422',-1.040
'0:04.424',-0.950
'0:04.426',-0.845
'0:04.428',-0.815
'0:04.430',-0.860
'0:04.432',-0.915
'0:04.434',-0.940
'0:04.436',-1.050
'0:04.438',-1.095
'0:04.440',-1.055
'0:04.442',-1.015
'0:04.444',-0.970
'0:04.446',-0.845
'0:04.448',-0.730
'0:04.450',-0.805
'0:04.452',-0.810
'0:04.454',-0.930
'0:04.456',-1.000
'0:04.458',-1.010
'0:04.460',-0.970
'0:04.462',-0.950
'0:04.464',-0.895
'0:04.466',-0.815
'0:04.468',-0.780
'0:04.470',-0.780
'0:04.472',-0.810
'0:04.474',-0.895
'0:04.476',-1.035
'0:04.478',-1.055
'0:04.480',-1.060
'0:04.482',-0.990
'0:04.484',-0.950
'0:04.486',-0.815
'0:04.488',-0.850
'0:04.490',-0.870
'0:04.492',-0.890
'0:04.494',-1.095
'0:04.496',-1.100
'0:04.498',-1.040
'0:04.500',-1.015
'0:04.502',-1.030
'0:04.504',-1.005
'0:04.506',-0.885
'0:04.508',-0.840
'0:04.510',-0.930
'0:04.512',-0.930
'0:04.514',-0.925
'0:04.516',-1.100
'0:04.518',-1.150
'0:04.520',-1.085
'0:04.522',-1.060
'0:04.524',-0.960
'0:04.526',-0.920
'0:04.528',-0.830
'0:04.530',-0.825
'0:04.532',-0.930
'0:04.534',-1.015
'0:04.536',-1.055
'0:04.538',-1.090
'0:04.540',-1.050
'0:04.542',-1.020
'0:04.544',-0.945
'0:04.546',-0.865
'0:04.548',-0.830
'0:04.550',-0.885
'0:04.552',-0.930
'0:04.554',-0.995
'0:04.556',-1.085
'0:04.558',-1.100
'0:04.560',-1.085
'0:04.562',-1.060
'0:04.564',-0.775
'0:04.566',-0.760
'0:04.568',-0.820
'0:04.570',-0.800
'0:04.572',-0.915
'0:04.574',-1.020
'0:04.576',-1.060
'0:04.578',-1.075
'0:04.580',-1.070
'0:04.582',-1.080
'0:04.584',-0.965
'0:04.586',-0.880
'0:04.588',-0.855
'0:04.590',-0.800
'0:04.592',-0.795
'0:04.594',-0.910
'0:04.596',-0.915
'0:04.598',-0.860
'0:04.600',-0.735
'0:04.602',-0.685
'0:04.604',-0.430
'0:04.606',-0.305
'0:04.608',-0.160
'0:04.610',-0.245
'0:04.612',-0.320
'0:04.614',-0.470
'0:04.616',-0.615
'0:04.618',-0.755
'0:04.620',-0.760
'0:04.622',-0.820
'0:04.624',-0.835
'0:04.626',-0.900
'0:04.628',-0.885
'0:04.630',-0.975
'0:04.632',-1.070
'0:04.634',-1.195
'0:04.636',-1.245
'0:04.638',-1.255
'0:04.640',-1.160
'0:04.642',-1.100
'0:04.644',-0.950
'0:04.646',-0.930
'0:04.648',-0.935
'0:04.650',-0.950
'0:04.652',-0.935
'0:04.654',-1.030
'0:04.656',-1.015
'0:04.658',-1.000
'0:04.660',-0.935
'0:04.662',-0.925
'0:04.664',-0.750
'0:04.666',-0.695
'0:04.668',-0.740
'0:04.670',-0.885
'0:04.672',-0.860
'0:04.674',-0.920
'0:04.676',-0.975
'0:04.678',-0.905
'0:04.680',-0.920
'0:04.682',-0.870
'0:04.684',-0.740
'0:04.686',-0.660
'0:04.688',-0.705
'0:04.690',-0.840
'0:04.692',-0.840
'0:04.694',-0.945
'0:04.696',-0.920
'0:04.698',-0.905
'0:04.700',-0.870
'0:04.702',-0.760
'0:04.704',-0.715
'0:04.706',-0.665
'0:04.708',-0.670
'0:04.710',-0.700
'0:04.712',-0.755
'0:04.714',-0.905
'0:04.716',-0.905
'0:04.718',-0.830
'0:04.720',-0.850
'0:04.722',-0.760
'0:04.724',-0.555
'0:04.726',-0.580
'0:04.728',-0.580
'0:04.730',-0.665
'0:04.732',-0.725
'0:04.734',-0.825
'0:04.736',-0.855
'0:04.738',-0.820
'0:04.740',-0.710
'0:04.742',-0.680
'0:04.744',-0.535
'0:04.746',-0.515
'0:04.748',-0.525
'0:04.750',-0.625
'0:04.752',-0.640
'0:04.754',-0.770
'0:04.756',-0.830
'0:04.758',-0.725
'0:04.760',-0.680
'0:04.762',-0.600
'0:04.764',-0.510
'0:04.766',-0.505
'0:04.768',-0.515
'0:04.770',-0.465
'0:04.772',-0.545
'0:04.774',-0.665
'0:04.776',-0.665
'0:04.778',-0.700
'0:04.780',-0.590
'0:04.782',-0.510
'0:04.784',-0.470
'0:04.786',-0.430
'0:04.788',-0.380
'0:04.790',-0.445
'0:04.792',-0.520
'0:04.794',-0.550
'0:04.796',-0.570
'0:04.798',-0.560
'0:04.800',-0.520
'0:04.802',-0.380
'0:04.804',-0.300
'0:04.806',-0.265
'0:04.808',-0.300
'0:04.810',-0.335
'0:04.812',-0.400
'0:04.814',-0.525
'0:04.816',-0.470
'0:04.818',-0.415
'0:04.820',-0.385
'0:04.822',-0.310
'0:04.824',-0.255
'0:04.826',-0.115
'0:04.828',-0.130
'0:04.830',-0.265
'0:04.832',-0.310
'0:04.834',-0.325
'0:04.836',-0.315
'0:04.838',-0.315
'0:04.840',-0.265
'0:04.842',-0.165
'0:04.844',-0.085
'0:04.846',-0.035
'0:04.848',-0.015
'0:04.850',-0.055
'0:04.852',-0.200
'0:04.854',-0.270
'0:04.856',-0.325
'0:04.858',-0.290
'0:04.860',-0.230
'0:04.862',-0.160
'0:04.864',-0.040
'0:04.866',-0.005
'0:04.868',-0.030
'0:04.870',-0.075
'0:04.872',-0.195
'0:04.874',-0.360
'0:04.876',-0.305
'0:04.878',-0.280
'0:04.880',-0.195
'0:04.882',-0.150
'0:04.884',-0.080
'0:04.886',-0.120
'0:04.888',-0.130
'0:04.890',-0.165
'0:04.892',-0.265
'0:04.894',-0.385
'0:04.896',-0.430
'0:04.898',-0.365
'0:04.900',-0.275
'0:04.902',-0.275
'0:04.904',-0.140
'0:04.906',-0.175
'0:04.908',-0.250
'0:04.910',-0.275
'0:04.912',-0.370
'0:04.914',-0.455
'0:04.916',-0.440
'0:04.918',-0.405
'0:04.920',-0.355
'0:04.922',-0.230
'0:04.924',-0.215
'0:04.926',-0.220
'0:04.928',-0.275
'0:04.930',-0.290
'0:04.932',-0.390
'0:04.934',-0.420
'0:04.936',-0.390
'0:04.938',-0.385
'0:04.940',-0.335
'0:04.942',-0.195
'0:04.944',-0.270
'0:04.946',-0.225
'0:04.948',-0.195
'0:04.950',-0.235
'0:04.952',-0.395
'0:04.954',-0.415
'0:04.956',-0.400
'0:04.958',-0.350
'0:04.960',-0.305
'0:04.962',-0.215
'0:04.964',-0.160
'0:04.966',-0.200
'0:04.968',-0.170
'0:04.970',-0.220
'0:04.972',-0.330
'0:04.974',-0.355
'0:04.976',-0.300
'0:04.978',-0.280
'0:04.980',-0.260
'0:04.982',-0.180
'0:04.984',-0.090
'0:04.986',-0.110
'0:04.988',-0.100
'0:04.990',-0.205
'0:04.992',-0.355
'0:04.994',-0.365
'0:04.996',-0.335
'0:04.998',-0.260
'0:05.000',-0.185
'0:05.002',-0.110
'0:05.004',-0.060
'0:05.006',-0.100
'0:05.008',-0.105
'0:05.010',-0.225
'0:05.012',-0.325
'0:05.014',-0.315
'0:05.016',-0.285
'0:05.018',-0.245
'0:05.020',-0.190
'0:05.022',0.015
'0:05.024',-0.035
'0:05.026',-0.080
'0:05.028',-0.175
'0:05.030',-0.210
'0:05.032',-0.230
'0:05.034',-0.195
'0:05.036',-0.245
'0:05.038',-0.215
'0:05.040',-0.100
'0:05.042',-0.040
'0:05.044',-0.025
'0:05.046',0.005
'0:05.048',-0.065
'0:05.050',-0.145
'0:05.052',-0.250
'0:05.054',-0.230
'0:05.056',-0.205
'0:05.058',-0.215
'0:05.060',-0.080
'0:05.062',0.005
'0:05.064',0.075
'0:05.066',0.005
'0:05.068',-0.035
'0:05.070',-0.095
'0:05.072',-0.175
'0:05.074',-0.200
'0:05.076',-0.165
'0:05.078',-0.145
'0:05.080',-0.040
'0:05.082',0.025
'0:05.084',0.065
'0:05.086',0.010
'0:05.088',0.005
'0:05.090',-0.055
'0:05.092',-0.115
'0:05.094',-0.175
'0:05.096',-0.180
'0:05.098',-0.040
'0:05.100',0.105
'0:05.102',0.145
'0:05.104',0.115
'0:05.106',0.075
'0:05.108',0.105
'0:05.110',-0.005
'0:05.112',-0.140
'0:05.114',-0.125
'0:05.116',-0.035
'0:05.118',0.005
'0:05.120',0.050
'0:05.122',0.070
'0:05.124',0.145
'0:05.126',0.060
'0:05.128',-0.010
'0:05.130',-0.085
'0:05.132',-0.120
'0:05.134',-0.155
'0:05.136',-0.155
'0:05.138',-0.075
'0:05.140',0.005
'0:05.142',0.090
'0:05.144',0.090
'0:05.146',0.045
'0:05.148',0.025
'0:05.150',-0.120
'0:05.152',-0.260
'0:05.154',-0.180
'0:05.156',-0.045
'0:05.158',0.030
'0:05.160',0.080
'0:05.162',0.100
'0:05.164',0.100
'0:05.166',0.035
'0:05.168',0.020
'0:05.170',-0.105
'0:05.172',-0.165
'0:05.174',-0.180
'0:05.176',-0.140
'0:05.178',-0.005
'0:05.180',0.050
'0:05.182',0.110
'0:05.184',0.100
'0:05.186',0.080
'0:05.188',0.010
'0:05.190',-0.055
'0:05.192',-0.090
'0:05.194',-0.065
'0:05.196',-0.105
'0:05.198',0.035
'0:05.200',0.110
'0:05.202',0.135
'0:05.204',0.135
'0:05.206',0.085
'0:05.208',0.050
'0:05.210',-0.045
'0:05.212',-0.110
'0:05.214',-0.155
'0:05.216',-0.070
'0:05.218',0.065
'0:05.220',0.130
'0:05.222',0.150
'0:05.224',0.140
'0:05.226',0.060
'0:05.228',0.070
'0:05.230',-0.065
'0:05.232',-0.140
'0:05.234',-0.130
'0:05.236',-0.040
'0:05.238',0.060
'0:05.240',0.040
'0:05.242',0.130
'0:05.244',0.210
'0:05.246',0.195
'0:05.248',0.205
'0:05.250',0.175
'0:05.252',0.120
'0:05.254',0.380
'0:05.256',0.490
'0:05.258',0.610
'0:05.260',0.745
'0:05.262',0.920
'0:05.264',0.840
'0:05.266',0.710
'0:05.268',0.595
'0:05.270',0.350
'0:05.272',0.230
'0:05.274',0.245
'0:05.276',0.125
'0:05.278',0.055
'0:05.280',0.120
'0:05.282',0.065
'0:05.284',0.050
'0:05.286',-0.070
'0:05.288',-0.155
'0:05.290',-0.165
'0:05.292',-0.190
'0:05.294',-0.160
'0:05.296',-0.140
'0:05.298',-0.010
'0:05.300',0.070
'0:05.302',0.150
'0:05.304',0.145
'0:05.306',0.100
'0:05.308',0.040
'0:05.310',-0.010
'0:05.312',-0.020
'0:05.314',-0.005
'0:05.316',0.030
'0:05.318',0.125
'0:05.320',0.200
'0:05.322',0.270
'0:05.324',0.265
'0:05.326',0.215
'0:05.328',0.080
'0:05.330',0.080
'0:05.332',0.015
'0:05.334',0.060
'0:05.336',0.160
'0:05.338',0.200
'0:05.340',0.245
'0:05.342',0.270
'0:05.344',0.245
'0:05.346',0.215
'0:05.348',0.130
'0:05.350',0.095
'0:05.352',0.010
'0:05.354',0.070
'0:05.356',0.165
'0:05.358',0.230
'0:05.360',0.320
'0:05.362',0.295
'0:05.364',0.265
'0:05.366',0.175
'0:05.368',0.170
'0:05.370',0.095
'0:05.372',0.090
'0:05.374',0.085
'0:05.376',0.145
'0:05.378',0.265
'0:05.380',0.290
'0:05.382',0.340
'0:05.384',0.290
'0:05.386',0.300
'0:05.388',0.165
'0:05.390',0.090
'0:05.392',0.075
'0:05.394',0.070
'0:05.396',0.220
'0:05.398',0.270
'0:05.400',0.335
'0:05.402',0.335
'0:05.404',0.310
'0:05.406',0.260
'0:05.408',0.150
'0:05.410',0.125
'0:05.412',0.160
'0:05.414',0.180
'0:05.416',0.210
'0:05.418',0.345
'0:05.420',0.420
'0:05.422',0.390
'0:05.424',0.355
'0:05.426',0.305
'0:05.428',0.260
'0:05.430',0.225
'0:05.432',0.175
'0:05.434',0.200
'0:05.436',0.225
'0:05.438',0.385
'0:05.440',0.460
'0:05.442',0.465
'0:05.444',0.335
'0:05.446',0.375
'0:05.448',0.290
'0:05.450',0.250
'0:05.452',0.300
'0:05.454',0.335
'0:05.456',0.390
'0:05.458',0.485
'0:05.460',0.475
'0:05.462',0.470
'0:05.464',0.510
'0:05.466',0.485
'0:05.468',0.390
'0:05.470',0.340
'0:05.472',0.345
'0:05.474',0.395
'0:05.476',0.430
'0:05.478',0.590
'0:05.480',0.645
'0:05.482',0.615
'0:05.484',0.600
'0:05.486',0.530
'0:05.488',0.455
'0:05.490',0.350
'0:05.492',0.500
'0:05.494',0.515
'0:05.496',0.545
'0:05.498',0.650
'0:05.500',0.710
'0:05.502',0.705
'0:05.504',0.645
'0:05.506',0.595
'0:05.508',0.480
'0:05.510',0.460
'0:05.512',0.455
'0:05.514',0.450
'0:05.516',0.555
'0:05.518',0.630
'0:05.520',0.670
'0:05.522',0.625
'0:05.524',0.640
'0:05.526',0.515
'0:05.528',0.410
'0:05.530',0.415
'0:05.532',0.425
'0:05.534',0.405
'0:05.536',0.465
'0:05.538',0.545
'0:05.540',0.530
'0:05.542',0.605
'0:05.544',0.485
'0:05.546',0.430
'0:05.548',0.310
'0:05.550',0.270
'0:05.552',0.250
'0:05.554',0.295
'0:05.556',0.360
'0:05.558',0.465
'0:05.560',0.470
'0:05.562',0.425
'0:05.564',0.395
'0:05.566',0.325
'0:05.568',0.210
'0:05.570',0.270
'0:05.572',0.205
'0:05.574',0.195
'0:05.576',0.305
'0:05.578',0.455
'0:05.580',0.495
'0:05.582',0.405
'0:05.584',0.355
'0:05.586',0.285
'0:05.588',0.175
'0:05.590',0.180
'0:05.592',0.240
'0:05.594',0.190
'0:05.596',0.305
'0:05.598',0.345
'0:05.600',0.470
'0:05.602',0.435
'0:05.604',0.390
'0:05.606',0.275
'0:05.608',0.220
'0:05.610',0.180
'0:05.612',0.170
'0:05.614',0.255
'0:05.616',0.365
'0:05.618',0.445
'0:05.620',0.400
'0:05.622',0.340
'0:05.624',0.325
'0:05.626',0.265
'0:05.628',0.225
'0:05.630',0.180
'0:05.632',0.230
'0:05.634',0.265
'0:05.636',0.325
'0:05.638',0.320
'0:05.640',0.485
'0:05.642',0.410
'0:05.644',0.365
'0:05.646',0.290
'0:05.648',0.215
'0:05.650',0.195
'0:05.652',0.210
'0:05.654',0.265
'0:05.656',0.345
'0:05.658',0.385
'0:05.660',0.435
'0:05.662',0.370
'0:05.664',0.445
'0:05.666',0.270
'0:05.668',0.230
'0:05.670',0.190
'0:05.672',0.190
'0:05.674',0.270
'0:05.676',0.355
'0:05.678',0.395
'0:05.680',0.430
'0:05.682',0.355
'0:05.684',0.395
'0:05.686',0.250
'0:05.688',0.190
'0:05.690',0.170
'0:05.692',0.180
'0:05.694',0.300
'0:05.696',0.350
'0:05.698',0.465
'0:05.700',0.450
'0:05.702',0.445
'0:05.704',0.335
'0:05.706',0.225
'0:05.708',0.195
'0:05.710',0.215
'0:05.712',0.260
'0:05.714',0.300
'0:05.716',0.390
'0:05.718',0.440
'0:05.720',0.410
'0:05.722',0.410
'0:05.724',0.375
'0:05.726',0.325
'0:05.728',0.195
'0:05.730',0.250
'0:05.732',0.245
'0:05.734',0.340
'0:05.736',0.450
'0:05.738',0.490
'0:05.740',0.490
'0:05.742',0.455
'0:05.744',0.425
'0:05.746',0.305
'0:05.748',0.270
'0:05.750',0.270
'0:05.752',0.280
'0:05.754',0.335
'0:05.756',0.455
'0:05.758',0.530
'0:05.760',0.440
'0:05.762',0.440
'0:05.764',0.365
'0:05.766',0.250
'0:05.768',0.210
'0:05.770',0.150
'0:05.772',0.220
'0:05.774',0.315
'0:05.776',0.405
'0:05.778',0.450
'0:05.780',0.410
'0:05.782',0.365
'0:05.784',0.315
'0:05.786',0.245
'0:05.788',0.160
'0:05.790',0.125
'0:05.792',0.180
'0:05.794',0.255
'0:05.796',0.360
'0:05.798',0.375
'0:05.800',0.390
'0:05.802',0.375
'0:05.804',0.285
'0:05.806',0.185
'0:05.808',0.125
'0:05.810',0.170
'0:05.812',0.200
'0:05.814',0.280
'0:05.816',0.365
'0:05.818',0.410
'0:05.820',0.380
'0:05.822',0.310
'0:05.824',0.280
'0:05.826',0.160
'0:05.828',0.065
'0:05.830',0.075
'0:05.832',0.240
'0:05.834',0.315
'0:05.836',0.395
'0:05.838',0.400
'0:05.840',0.425
'0:05.842',0.295
'0:05.844',0.230
'0:05.846',0.180
'0:05.848',0.130
'0:05.850',0.175
'0:05.852',0.225
'0:05.854',0.275
'0:05.856',0.340
'0:05.858',0.390
'0:05.860',0.370
'0:05.862',0.355
'0:05.864',0.245
'0:05.866',0.150
'0:05.868',0.125
'0:05.870',0.110
'0:05.872',0.155
'0:05.874',0.245
'0:05.876',0.350
'0:05.878',0.350
'0:05.880',0.315
'0:05.882',0.310
'0:05.884',0.275
'0:05.886',0.270
'0:05.888',0.330
'0:05.890',0.430
'0:05.892',0.515
'0:05.894',0.650
'0:05.896',0.805
'0:05.898',0.990
'0:05.900',1.020
'0:05.902',1.010
'0:05.904',0.860
'0:05.906',0.685
'0:05.908',0.610
'0:05.910',0.580
'0:05.912',0.475
'0:05.914',0.500
'0:05.916',0.470
'0:05.918',0.370
'0:05.920',0.295
'0:05.922',0.200
'0:05.924',0.065
'0:05.926',-0.055
'0:05.928',-0.105
'0:05.930',0.000
'0:05.932',0.030
'0:05.934',0.145
'0:05.936',0.300
'0:05.938',0.245
'0:05.940',0.260
'0:05.942',0.260
'0:05.944',0.180
'0:05.946',0.130
'0:05.948',0.135
'0:05.950',0.185
'0:05.952',0.255
'0:05.954',0.310
'0:05.956',0.380
'0:05.958',0.440
'0:05.960',0.405
'0:05.962',0.320
'0:05.964',0.240
'0:05.966',0.175
'0:05.968',0.125
'0:05.970',0.240
'0:05.972',0.280
'0:05.974',0.340
'0:05.976',0.410
'0:05.978',0.375
'0:05.980',0.350
'0:05.982',0.435
'0:05.984',0.240
'0:05.986',0.205
'0:05.988',0.150
'0:05.990',0.225
'0:05.992',0.305
'0:05.994',0.410
'0:05.996',0.460
'0:05.998',0.455
'0:06.000',0.385
'0:06.002',0.360
'0:06.004',0.235
'0:06.006',0.210
'0:06.008',0.165
'0:06.010',0.210
'0:06.012',0.315
'0:06.014',0.420
'0:06.016',0.430
'0:06.018',0.445
'0:06.020',0.435
'0:06.022',0.365
'0:06.024',0.280
'0:06.026',0.205
'0:06.028',0.180
'0:06.030',0.235
'0:06.032',0.305
'0:06.034',0.430
'0:06.036',0.465
'0:06.038',0.490
'0:06.040',0.375
'0:06.042',0.365
'0:06.044',0.305
'0:06.046',0.205
'0:06.048',0.240
'0:06.050',0.255
'0:06.052',0.350
'0:06.054',0.490
'0:06.056',0.455
'0:06.058',0.495
'0:06.060',0.400
'0:06.062',0.395
'0:06.064',0.290
'0:06.066',0.210
'0:06.068',0.225
'0:06.070',0.290
'0:06.072',0.340
'0:06.074',0.435
'0:06.076',0.510
'0:06.078',0.505
'0:06.080',0.485
'0:06.082',0.415
'0:06.084',0.255
'0:06.086',0.265
'0:06.088',0.335
'0:06.090',0.410
'0:06.092',0.420
'0:06.094',0.555
'0:06.096',0.625
'0:06.098',0.580
'0:06.100',0.600
'0:06.102',0.515
'0:06.104',0.380
'0:06.106',0.425
'0:06.108',0.405
'0:06.110',0.470
'0:06.112',0.545
'0:06.114',0.650
'0:06.116',0.715
'0:06.118',0.670
'0:06.120',0.685
'0:06.122',0.545
'0:06.124',0.560
'0:06.126',0.555
'0:06.128',0.500
'0:06.130',0.545
'0:06.132',0.665
'0:06.134',0.730
'0:06.136',0.745
'0:06.138',0.775
'0:06.140',0.700
'0:06.142',0.640
'0:06.144',0.545
'0:06.146',0.520
'0:06.148',0.540
'0:06.150',0.625
'0:06.152',0.660
'0:06.154',0.735
'0:06.156',0.745
'0:06.158',0.720
'0:06.160',0.690
'0:06.162',0.595
'0:06.164',0.495
'0:06.166',0.420
'0:06.168',0.465
'0:06.170',0.530
'0:06.172',0.600
'0:06.174',0.645
'0:06.176',0.750
'0:06.178',0.605
'0:06.180',0.640
'0:06.182',0.505
'0:06.184',0.380
'0:06.186',0.350
'0:06.188',0.400
'0:06.190',0.445
'0:06.192',0.595
'0:06.194',0.665
'0:06.196',0.570
'0:06.198',0.565
'0:06.200',0.475
'0:06.202',0.365
'0:06.204',0.255
'0:06.206',0.275
'0:06.208',0.355
'0:06.210',0.345
'0:06.212',0.400
'0:06.214',0.495
'0:06.216',0.510
'0:06.218',0.480
'0:06.220',0.460
'0:06.222',0.375
'0:06.224',0.280
'0:06.226',0.240
'0:06.228',0.290
'0:06.230',0.345
'0:06.232',0.435
'0:06.234',0.445
'0:06.236',0.535
'0:06.238',0.460
'0:06.240',0.475
'0:06.242',0.350
'0:06.244',0.265
'0:06.246',0.255
'0:06.248',0.300
'0:06.250',0.310
'0:06.252',0.420
'0:06.254',0.485
'0:06.256',0.495
'0:06.258',0.435
'0:06.260',0.410
'0:06.262',0.370
'0:06.264',0.280
'0:06.266',0.220
'0:06.268',0.340
'0:06.270',0.325
'0:06.272',0.440
'0:06.274',0.560
'0:06.276',0.565
'0:06.278',0.480
'0:06.280',0.495
'0:06.282',0.390
'0:06.284',0.250
'0:06.286',0.260
'0:06.288',0.320
'0:06.290',0.335
'0:06.292',0.465
'0:06.294',0.505
'0:06.296',0.515
'0:06.298',0.465
'0:06.300',0.410
'0:06.302',0.360
'0:06.304',0.230
'0:06.306',0.275
'0:06.308',0.365
'0:06.310',0.365
'0:06.312',0.485
'0:06.314',0.485
'0:06.316',0.525
'0:06.318',0.460
'0:06.320',0.400
'0:06.322',0.350
'0:06.324',0.275
'0:06.326',0.225
'0:06.328',0.265
'0:06.330',0.365
'0:06.332',0.535
'0:06.334',0.530
'0:06.336',0.500
'0:06.338',0.495
'0:06.340',0.445
'0:06.342',0.310
'0:06.344',0.240
'0:06.346',0.320
'0:06.348',0.310
'0:06.350',0.390
'0:06.352',0.505
'0:06.354',0.630
'0:06.356',0.555
'0:06.358',0.480
'0:06.360',0.425
'0:06.362',0.330
'0:06.364',0.295
'0:06.366',0.300
'0:06.368',0.340
'0:06.370',0.395
'0:06.372',0.505
'0:06.374',0.575
'0:06.376',0.575
'0:06.378',0.535
'0:06.380',0.455
'0:06.382',0.395
'0:06.384',0.330
'0:06.386',0.305
'0:06.388',0.410
'0:06.390',0.485
'0:06.392',0.605
'0:06.394',0.590
'0:06.396',0.590
'0:06.398',0.515
'0:06.400',0.475
'0:06.402',0.360
'0:06.404',0.305
'0:06.406',0.330
'0:06.408',0.415
'0:06.410',0.450
'0:06.412',0.535
'0:06.414',0.545
'0:06.416',0.470
'0:06.418',0.425
'0:06.420',0.390
'0:06.422',0.330
'0:06.424',0.290
'0:06.426',0.280
'0:06.428',0.360
'0:06.430',0.405
'0:06.432',0.465
'0:06.434',0.575
'0:06.436',0.535
'0:06.438',0.475
'0:06.440',0.335
'0:06.442',0.250
'0:06.444',0.230
'0:06.446',0.260
'0:06.448',0.310
'0:06.450',0.395
'0:06.452',0.460
'0:06.454',0.465
'0:06.456',0.450
'0:06.458',0.420
'0:06.460',0.345
'0:06.462',0.260
'0:06.464',0.215
'0:06.466',0.255
'0:06.468',0.280
'0:06.470',0.385
'0:06.472',0.480
'0:06.474',0.530
'0:06.476',0.475
'0:06.478',0.390
'0:06.480',0.340
'0:06.482',0.240
'0:06.484',0.225
'0:06.486',0.255
'0:06.488',0.270
'0:06.490',0.365
'0:06.492',0.455
'0:06.494',0.520
'0:06.496',0.470
'0:06.498',0.375
'0:06.500',0.260
'0:06.502',0.300
'0:06.504',0.195
'0:06.506',0.270
'0:06.508',0.320
'0:06.510',0.420
'0:06.512',0.445
'0:06.514',0.450
'0:06.516',0.410
'0:06.518',0.330
'0:06.520',0.175
'0:06.522',0.195
'0:06.524',0.290
'0:06.526',0.235
'0:06.528',0.265
'0:06.530',0.385
'0:06.532',0.440
'0:06.534',0.595
'0:06.536',0.575
'0:06.538',0.565
'0:06.540',0.560
'0:06.542',0.615
'0:06.544',0.635
'0:06.546',0.810
'0:06.548',0.920
'0:06.550',1.115
'0:06.552',1.130
'0:06.554',1.055
'0:06.556',0.985
'0:06.558',0.880
'0:06.560',0.675
'0:06.562',0.470
'0:06.564',0.400
'0:06.566',0.380
'0:06.568',0.310
'0:06.570',0.330
'0:06.572',0.355
'0:06.574',0.275
'0:06.576',0.210
'0:06.578',0.150
'0:06.580',0.140
'0:06.582',0.005
'0:06.584',0.060
'0:06.586',0.145
'0:06.588',0.245
'0:06.590',0.370
'0:06.592',0.420
'0:06.594',0.455
'0:06.596',0.430
'0:06.598',0.360
'0:06.600',0.245
'0:06.602',0.180
'0:06.604',0.225
'0:06.606',0.280
'0:06.608',0.310
'0:06.610',0.460
'0:06.612',0.445
'0:06.614',0.505
'0:06.616',0.485
'0:06.618',0.355
'0:06.620',0.265
'0:06.622',0.240
'0:06.624',0.250
'0:06.626',0.295
'0:06.628',0.385
'0:06.630',0.450
'0:06.632',0.480
'0:06.634',0.435
'0:06.636',0.415
'0:06.638',0.380
'0:06.640',0.290
'0:06.642',0.190
'0:06.644',0.265
'0:06.646',0.295
'0:06.648',0.330
'0:06.650',0.515
'0:06.652',0.510
'0:06.654',0.490
'0:06.656',0.420
'0:06.658',0.410
'0:06.660',0.295
'0:06.662',0.280
'0:06.664',0.255
'0:06.666',0.310
'0:06.668',0.380
'0:06.670',0.520
'0:06.672',0.450
'0:06.674',0.510
'0:06.676',0.470
'0:06.678',0.370
'0:06.680',0.355
'0:06.682',0.225
'0:06.684',0.235
'0:06.686',0.325
'0:06.688',0.395
'0:06.690',0.530
'0:06.692',0.490
'0:06.694',0.430
'0:06.696',0.420
'0:06.698',0.405
'0:06.700',0.315
'0:06.702',0.275
'0:06.704',0.260
'0:06.706',0.320
'0:06.708',0.415
'0:06.710',0.475
'0:06.712',0.465
'0:06.714',0.485
'0:06.716',0.450
'0:06.718',0.350
'0:06.720',0.245
'0:06.722',0.230
'0:06.724',0.380
'0:06.726',0.375
'0:06.728',0.450
'0:06.730',0.555
'0:06.732',0.625
'0:06.734',0.550
'0:06.736',0.505
'0:06.738',0.440
'0:06.740',0.390
'0:06.742',0.355
'0:06.744',0.375
'0:06.746',0.425
'0:06.748',0.525
'0:06.750',0.615
'0:06.752',0.640
'0:06.754',0.635
'0:06.756',0.575
'0:06.758',0.515
'0:06.760',0.415
'0:06.762',0.450
'0:06.764',0.460
'0:06.766',0.550
'0:06.768',0.665
'0:06.770',0.725
'0:06.772',0.740
'0:06.774',0.685
'0:06.776',0.635
'0:06.778',0.545
'0:06.780',0.515
'0:06.782',0.480
'0:06.784',0.560
'0:06.786',0.620
'0:06.788',0.690
'0:06.790',0.750
'0:06.792',0.775
'0:06.794',0.710
'0:06.796',0.710
'0:06.798',0.625
'0:06.800',0.510
'0:06.802',0.505
'0:06.804',0.540
'0:06.806',0.560
'0:06.808',0.660
'0:06.810',0.730
'0:06.812',0.740
'0:06.814',0.695
'0:06.816',0.630
'0:06.818',0.500
'0:06.820',0.415
'0:06.822',0.380
'0:06.824',0.445
'0:06.826',0.495
'0:06.828',0.595
'0:06.830',0.620
'0:06.832',0.605
'0:06.834',0.565
'0:06.836',0.500
'0:06.838',0.360
'0:06.840',0.325
'0:06.842',0.305
'0:06.844',0.325
'0:06.846',0.410
'0:06.848',0.465
'0:06.850',0.495
'0:06.852',0.500
'0:06.854',0.415
'0:06.856',0.370
'0:06.858',0.300
'0:06.860',0.205
'0:06.862',0.270
'0:06.864',0.275
'0:06.866',0.305
'0:06.868',0.420
'0:06.870',0.500
'0:06.872',0.445
'0:06.874',0.395
'0:06.876',0.290
'0:06.878',0.300
'0:06.880',0.190
'0:06.882',0.250
'0:06.884',0.275
'0:06.886',0.310
'0:06.888',0.430
'0:06.890',0.465
'0:06.892',0.465
'0:06.894',0.380
'0:06.896',0.360
'0:06.898',0.205
'0:06.900',0.200
'0:06.902',0.180
'0:06.904',0.320
'0:06.906',0.345
'0:06.908',0.390
'0:06.910',0.525
'0:06.912',0.420
'0:06.914',0.395
'0:06.916',0.405
'0:06.918',0.265
'0:06.920',0.205
'0:06.922',0.230
'0:06.924',0.195
'0:06.926',0.310
'0:06.928',0.435
'0:06.930',0.465
'0:06.932',0.390
'0:06.934',0.400
'0:06.936',0.385
'0:06.938',0.270
'0:06.940',0.210
'0:06.942',0.255
'0:06.944',0.275
'0:06.946',0.350
'0:06.948',0.445
'0:06.950',0.475
'0:06.952',0.435
'0:06.954',0.380
'0:06.956',0.345
'0:06.958',0.260
'0:06.960',0.155
'0:06.962',0.245
'0:06.964',0.290
'0:06.966',0.270
'0:06.968',0.380
'0:06.970',0.490
'0:06.972',0.440
'0:06.974',0.385
'0:06.976',0.340
'0:06.978',0.220
'0:06.980',0.140
'0:06.982',0.260
'0:06.984',0.260
'0:06.986',0.350
'0:06.988',0.415
'0:06.990',0.495
'0:06.992',0.445
'0:06.994',0.395
'0:06.996',0.275
'0:06.998',0.225
'0:07.000',0.115
'0:07.002',0.195
'0:07.004',0.255
'0:07.006',0.355
'0:07.008',0.410
'0:07.010',0.420
'0:07.012',0.400
'0:07.014',0.405
'0:07.016',0.305
'0:07.018',0.245
'0:07.020',0.185
'0:07.022',0.225
'0:07.024',0.285
'0:07.026',0.375
'0:07.028',0.425
'0:07.030',0.540
'0:07.032',0.370
'0:07.034',0.400
'0:07.036',0.285
'0:07.038',0.220
'0:07.040',0.160
'0:07.042',0.225
'0:07.044',0.220
'0:07.046',0.350
'0:07.048',0.435
'0:07.050',0.475
'0:07.052',0.440
'0:07.054',0.415
'0:07.056',0.270
'0:07.058',0.205
'0:07.060',0.215
'0:07.062',0.310
'0:07.064',0.275
'0:07.066',0.365
'0:07.068',0.510
'0:07.070',0.590
'0:07.072',0.530
'0:07.074',0.420
'0:07.076',0.335
'0:07.078',0.220
'0:07.080',0.245
'0:07.082',0.295
'0:07.084',0.320
'0:07.086',0.410
'0:07.088',0.430
'0:07.090',0.450
'0:07.092',0.415
'0:07.094',0.360
'0:07.096',0.370
'0:07.098',0.245
'0:07.100',0.215
'0:07.102',0.235
'0:07.104',0.270
'0:07.106',0.315
'0:07.108',0.405
'0:07.110',0.520
'0:07.112',0.420
'0:07.114',0.355
'0:07.116',0.215
'0:07.118',0.155
'0:07.120',0.175
'0:07.122',0.270
'0:07.124',0.260
'0:07.126',0.355
'0:07.128',0.425
'0:07.130',0.435
'0:07.132',0.400
'0:07.134',0.350
'0:07.136',0.295
'0:07.138',0.135
'0:07.140',0.145
'0:07.142',0.200
'0:07.144',0.270
'0:07.146',0.365
'0:07.148',0.410
'0:07.150',0.455
'0:07.152',0.400
'0:07.154',0.325
'0:07.156',0.200
'0:07.158',0.135
'0:07.160',0.165
'0:07.162',0.230
'0:07.164',0.260
'0:07.166',0.350
'0:07.168',0.405
'0:07.170',0.445
'0:07.172',0.385
'0:07.174',0.335
'0:07.176',0.220
'0:07.178',0.125
'0:07.180',0.090
'0:07.182',0.220
'0:07.184',0.285
'0:07.186',0.435
'0:07.188',0.460
'0:07.190',0.395
'0:07.192',0.310
'0:07.194',0.325
'0:07.196',0.180
'0:07.198',0.105
'0:07.200',0.140
'0:07.202',0.145
'0:07.204',0.265
'0:07.206',0.355
'0:07.208',0.390
'0:07.210',0.440
'0:07.212',0.435
'0:07.214',0.510
'0:07.216',0.415
'0:07.218',0.480
'0:07.220',0.535
'0:07.222',0.675
'0:07.224',0.830
'0:07.226',1.030
'0:07.228',1.140
'0:07.230',1.055
'0:07.232',0.955
'0:07.234',0.745
'0:07.236',0.590
'0:07.238',0.495
'0:07.240',0.385
'0:07.242',0.345
'0:07.244',0.310
'0:07.246',0.350
'0:07.248',0.290
'0:07.250',0.240
'0:07.252',0.180
'0:07.254',0.075
'0:07.256',-0.020
'0:07.258',-0.030
'0:07.260',0.025
'0:07.262',0.050
'0:07.264',0.160
'0:07.266',0.320
'0:07.268',0.355
'0:07.270',0.335
'0:07.272',0.305
'0:07.274',0.265
'0:07.276',0.200
'0:07.278',0.155
'0:07.280',0.170
'0:07.282',0.255
'0:07.284',0.310
'0:07.286',0.390
'0:07.288',0.470
'0:07.290',0.400
'0:07.292',0.315
'0:07.294',0.270
'0:07.296',0.200
'0:07.298',0.210
'0:07.300',0.180
'0:07.302',0.200
'0:07.304',0.300
'0:07.306',0.355
'0:07.308',0.460
'0:07.310',0.375
'0:07.312',0.315
'0:07.314',0.280
'0:07.316',0.170
'0:07.318',0.210
'0:07.320',0.230
'0:07.322',0.265
'0:07.324',0.340
'0:07.326',0.395
'0:07.328',0.415
'0:07.330',0.440
'0:07.332',0.400
'0:07.334',0.225
'0:07.336',0.100
'0:07.338',0.200
'0:07.340',0.250
'0:07.342',0.250
'0:07.344',0.375
'0:07.346',0.435
'0:07.348',0.450
'0:07.350',0.390
'0:07.352',0.330
'0:07.354',0.235
'0:07.356',0.215
'0:07.358',0.200
'0:07.360',0.250
'0:07.362',0.280
'0:07.364',0.350
'0:07.366',0.400
'0:07.368',0.450
'0:07.370',0.395
'0:07.372',0.355
'0:07.374',0.285
'0:07.376',0.220
'0:07.378',0.210
'0:07.380',0.250
'0:07.382',0.260
'0:07.384',0.360
'0:07.386',0.475
'0:07.388',0.485
'0:07.390',0.405
'0:07.392',0.350
'0:07.394',0.295
'0:07.396',0.200
'0:07.398',0.190
'0:07.400',0.290
'0:07.402',0.320
'0:07.404',0.430
'0:07.406',0.470
'0:07.408',0.465
'0:07.410',0.425
'0:07.412',0.415
'0:07.414',0.335
'0:07.416',0.295
'0:07.418',0.270
'0:07.420',0.310
'0:07.422',0.290
'0:07.424',0.425
'0:07.426',0.575
'0:07.428',0.545
'0:07.430',0.530
'0:07.432',0.475
'0:07.434',0.390
'0:07.436',0.340
'0:07.438',0.315
'0:07.440',0.355
'0:07.442',0.455
'0:07.444',0.585
'0:07.446',0.595
'0:07.448',0.710
'0:07.450',0.540
'0:07.452',0.520
'0:07.454',0.425
'0:07.456',0.360
'0:07.458',0.355
'0:07.460',0.410
'0:07.462',0.515
'0:07.464',0.645
'0:07.466',0.640
'0:07.468',0.650
'0:07.470',0.595
'0:07.472',0.545
'0:07.474',0.450
'0:07.476',0.390
'0:07.478',0.415
'0:07.480',0.465
'0:07.482',0.495
'0:07.484',0.610
'0:07.486',0.650
'0:07.488',0.635
'0:07.490',0.520
'0:07.492',0.530
'0:07.494',0.315
'0:07.496',0.285
'0:07.498',0.335
'0:07.500',0.375
'0:07.502',0.410
'0:07.504',0.465
'0:07.506',0.485
'0:07.508',0.460
'0:07.510',0.445
'0:07.512',0.325
'0:07.514',0.160
'0:07.516',0.195
'0:07.518',0.225
'0:07.520',0.225
'0:07.522',0.305
'0:07.524',0.395
'0:07.526',0.385
'0:07.528',0.365
'0:07.530',0.305
'0:07.532',0.275
'0:07.534',0.155
'0:07.536',0.075
'0:07.538',0.065
'0:07.540',0.150
'0:07.542',0.255
'0:07.544',0.305
'0:07.546',0.340
'0:07.548',0.325
'0:07.550',0.260
'0:07.552',0.180
'0:07.554',0.075
'0:07.556',0.030
'0:07.558',0.095
'0:07.560',0.170
'0:07.562',0.235
'0:07.564',0.305
'0:07.566',0.350
'0:07.568',0.270
'0:07.570',0.215
'0:07.572',0.120
'0:07.574',0.035
'0:07.576',0.025
'0:07.578',0.090
'0:07.580',0.135
'0:07.582',0.180
'0:07.584',0.265
'0:07.586',0.315
'0:07.588',0.285
'0:07.590',0.195
'0:07.592',0.105
'0:07.594',-0.005
'0:07.596',0.025
'0:07.598',0.040
'0:07.600',0.150
'0:07.602',0.220
'0:07.604',0.235
'0:07.606',0.275
'0:07.608',0.305
'0:07.610',0.270
'0:07.612',0.140
'0:07.614',0.090
'0:07.616',0.030
'0:07.618',0.015
'0:07.620',0.050
'0:07.622',0.195
'0:07.624',0.265
'0:07.626',0.270
'0:07.628',0.230
'0:07.630',0.195
'0:07.632',0.075
'0:07.634',0.020
'0:07.636',0.065
'0:07.638',0.055
'0:07.640',0.085
'0:07.642',0.190
'0:07.644',0.200
'0:07.646',0.255
'0:07.648',0.230
'0:07.650',0.175
'0:07.652',0.080
'0:07.654',-0.005
'0:07.656',-0.015
'0:07.658',0.030
'0:07.660',0.080
'0:07.662',0.185
'0:07.664',0.180
'0:07.666',0.230
'0:07.668',0.205
'0:07.670',0.120
'0:07.672',0.055
'0:07.674',-0.055
'0:07.676',-0.095
'0:07.678',0.050
'0:07.680',0.010
'0:07.682',0.135
'0:07.684',0.240
'0:07.686',0.205
'0:07.688',0.185
'0:07.690',0.115
'0:07.692',0.005
'0:07.694',-0.025
'0:07.696',-0.060
'0:07.698',0.015
'0:07.700',0.055
'0:07.702',0.135
'0:07.704',0.170
'0:07.706',0.130
'0:07.708',0.145
'0:07.710',0.160
'0:07.712',-0.015
'0:07.714',-0.100
'0:07.716',-0.045
'0:07.718',-0.040
'0:07.720',0.045
'0:07.722',0.175
'0:07.724',0.175
'0:07.726',0.195
'0:07.728',0.145
'0:07.730',0.035
'0:07.732',-0.065
'0:07.734',-0.115
'0:07.736',-0.105
'0:07.738',-0.050
'0:07.740',0.015
'0:07.742',0.085
'0:07.744',0.145
'0:07.746',0.130
'0:07.748',0.115
'0:07.750',0.020
'0:07.752',-0.080
'0:07.754',-0.095
'0:07.756',-0.085
'0:07.758',-0.070
'0:07.760',0.005
'0:07.762',0.105
'0:07.764',0.145
'0:07.766',0.125
'0:07.768',0.045
'0:07.770',0.060
'0:07.772',-0.070
'0:07.774',-0.120
'0:07.776',-0.080
'0:07.778',-0.065
'0:07.780',-0.120
'0:07.782',0.035
'0:07.784',0.185
'0:07.786',0.110
'0:07.788',0.115
'0:07.790',0.030
'0:07.792',-0.130
'0:07.794',-0.160
'0:07.796',-0.130
'0:07.798',-0.090
'0:07.800',-0.020
'0:07.802',0.050
'0:07.804',0.075
'0:07.806',0.045
'0:07.808',0.015
'0:07.810',0.050
'0:07.812',-0.080
'0:07.814',-0.135
'0:07.816',-0.105
'0:07.818',-0.125
'0:07.820',-0.010
'0:07.822',0.090
'0:07.824',0.125
'0:07.826',0.065
'0:07.828',0.040
'0:07.830',-0.055
'0:07.832',-0.140
'0:07.834',-0.165
'0:07.836',-0.140
'0:07.838',-0.090
'0:07.840',0.065
'0:07.842',0.105
'0:07.844',0.130
'0:07.846',0.085
'0:07.848',0.115
'0:07.850',0.050
'0:07.852',-0.130
'0:07.854',-0.100
'0:07.856',-0.095
'0:07.858',-0.050
'0:07.860',-0.005
'0:07.862',0.120
'0:07.864',0.185
'0:07.866',0.135
'0:07.868',0.055
'0:07.870',-0.055
'0:07.872',-0.075
'0:07.874',-0.170
'0:07.876',-0.075
'0:07.878',-0.070
'0:07.880',-0.025
'0:07.882',0.030
'0:07.884',0.085
'0:07.886',0.065
'0:07.888',0.010
'0:07.890',-0.130
'0:07.892',-0.180
'0:07.894',-0.220
'0:07.896',-0.135
'0:07.898',-0.105
'0:07.900',-0.050
'0:07.902',0.025
'0:07.904',0.045
'0:07.906',0.005
'0:07.908',-0.045
'0:07.910',-0.140
'0:07.912',-0.205
'0:07.914',-0.235
'0:07.916',-0.180
'0:07.918',-0.110
'0:07.920',-0.035
'0:07.922',-0.010
'0:07.924',0.010
'0:07.926',0.010
'0:07.928',-0.005
'0:07.930',-0.135
'0:07.932',-0.210
'0:07.934',-0.180
'0:07.936',-0.200
'0:07.938',-0.125
'0:07.940',-0.045
'0:07.942',-0.010
'0:07.944',0.025
'0:07.946',-0.005
'0:07.948',-0.075
'0:07.950',-0.200
'0:07.952',-0.245
'0:07.954',-0.240
'0:07.956',-0.150
'0:07.958',-0.200
'0:07.960',-0.075
'0:07.962',0.015
'0:07.964',0.050
'0:07.966',-0.035
'0:07.968',-0.045
'0:07.970',-0.185
'0:07.972',-0.255
'0:07.974',-0.265
'0:07.976',-0.245
'0:07.978',-0.160
'0:07.980',-0.060
'0:07.982',0.045
'0:07.984',-0.040
'0:07.986',-0.060
'0:07.988',-0.110
'0:07.990',-0.085
'0:07.992',-0.145
'0:07.994',-0.110
'0:07.996',-0.055
'0:07.998',0.090
'0:08.000',0.280
'0:08.002',0.355
'0:08.004',0.450
'0:08.006',0.510
'0:08.008',0.520
'0:08.010',0.400
'0:08.012',0.265
'0:08.014',0.160
'0:08.016',0.135
'0:08.018',0.160
'0:08.020',0.095
'0:08.022',0.185
'0:08.024',0.010
'0:08.026',-0.085
'0:08.028',-0.210
'0:08.030',-0.370
'0:08.032',-0.385
'0:08.034',-0.440
'0:08.036',-0.415
'0:08.038',-0.340
'0:08.040',-0.205
'0:08.042',-0.160
'0:08.044',-0.170
'0:08.046',-0.190
'0:08.048',-0.245
'0:08.050',-0.310
'0:08.052',-0.350
'0:08.054',-0.305
'0:08.056',-0.245
'0:08.058',-0.210
'0:08.060',-0.075
'0:08.062',0.010
'0:08.064',-0.015
'0:08.066',-0.025
'0:08.068',-0.065
'0:08.070',-0.225
'0:08.072',-0.275
'0:08.074',-0.230
'0:08.076',-0.240
'0:08.078',-0.125
'0:08.080',-0.060
'0:08.082',0.035
'0:08.084',-0.025
'0:08.086',-0.140
'0:08.088',-0.140
'0:08.090',-0.190
'0:08.092',-0.260
'0:08.094',-0.255
'0:08.096',-0.205
'0:08.098',-0.110
'0:08.100',-0.080
'0:08.102',0.085
'0:08.104',0.015
'0:08.106',-0.125
'0:08.108',-0.185
'0:08.110',-0.220
'0:08.112',-0.235
'0:08.114',-0.215
'0:08.116',-0.175
'0:08.118',-0.100
'0:08.120',-0.040
'0:08.122',-0.015
'0:08.124',-0.045
'0:08.126',-0.095
'0:08.128',-0.230
'0:08.130',-0.275
'0:08.132',-0.250
'0:08.134',-0.165
'0:08.136',-0.190
'0:08.138',-0.130
'0:08.140',0.005
'0:08.142',0.025
'0:08.144',-0.065
'0:08.146',0.000
'0:08.148',-0.165
'0:08.150',-0.240
'0:08.152',-0.270
'0:08.154',-0.315
'0:08.156',-0.200
'0:08.158',0.000
'0:08.160',0.015
'0:08.162',0.085
'0:08.164',0.015
'0:08.166',-0.035
'0:08.168',-0.195
'0:08.170',-0.245
'0:08.172',-0.180
'0:08.174',-0.140
'0:08.176',-0.155
'0:08.178',-0.055
'0:08.180',-0.035
'0:08.182',0.075
'0:08.184',0.030
'0:08.186',-0.005
'0:08.188',-0.130
'0:08.190',-0.170
'0:08.192',-0.150
'0:08.194',-0.110
'0:08.196',-0.075
'0:08.198',0.005
'0:08.200',0.100
'0:08.202',0.095
'0:08.204',0.065
'0:08.206',0.025
'0:08.208',-0.035
'0:08.210',-0.110
'0:08.212',-0.115
'0:08.214',-0.100
'0:08.216',0.050
'0:08.218',0.090
'0:08.220',0.140
'0:08.222',0.255
'0:08.224',0.145
'0:08.226',0.095
'0:08.228',0.030
'0:08.230',0.040
'0:08.232',-0.040
'0:08.234',-0.030
'0:08.236',0.035
'0:08.238',0.145
'0:08.240',0.270
'0:08.242',0.295
'0:08.244',0.230
'0:08.246',0.185
'0:08.248',0.080
'0:08.250',-0.010
'0:08.252',-0.035
'0:08.254',0.040
'0:08.256',0.160
'0:08.258',0.255
'0:08.260',0.280
'0:08.262',0.220
'0:08.264',0.160
'0:08.266',0.190
'0:08.268',0.085
'0:08.270',0.010
'0:08.272',-0.015
'0:08.274',0.035
'0:08.276',0.115
'0:08.278',0.160
'0:08.280',0.175
'0:08.282',0.185
'0:08.284',0.085
'0:08.286',0.035
'0:08.288',-0.070
'0:08.290',-0.130
'0:08.292',-0.155
'0:08.294',-0.110
'0:08.296',-0.055
'0:08.298',0.035
'0:08.300',0.095
'0:08.302',0.105
'0:08.304',0.060
'0:08.306',-0.105
'0:08.308',-0.200
'0:08.310',-0.285
'0:08.312',-0.255
'0:08.314',-0.190
'0:08.316',-0.105
'0:08.318',-0.020
'0:08.320',0.055
'0:08.322',0.035
'0:08.324',-0.060
'0:08.326',-0.125
'0:08.328',-0.200
'0:08.330',-0.265
'0:08.332',-0.280
'0:08.334',-0.225
'0:08.336',-0.165
'0:08.338',-0.080
'0:08.340',-0.025
'0:08.342',-0.050
'0:08.344',-0.095
'0:08.346',-0.140
'0:08.348',-0.205
'0:08.350',-0.295
'0:08.352',-0.275
'0:08.354',-0.215
'0:08.356',-0.160
'0:08.358',-0.090
'0:08.360',-0.045
'0:08.362',-0.040
'0:08.364',-0.145
'0:08.366',-0.150
'0:08.368',-0.285
'0:08.370',-0.295
'0:08.372',-0.270
'0:08.374',-0.230
'0:08.376',-0.155
'0:08.378',-0.155
'0:08.380',-0.040
'0:08.382',-0.020
'0:08.384',-0.150
'0:08.386',-0.185
'0:08.388',-0.255
'0:08.390',-0.290
'0:08.392',-0.300
'0:08.394',-0.230
'0:08.396',-0.120
'0:08.398',-0.060
'0:08.400',-0.040
'0:08.402',-0.080
'0:08.404',-0.135
'0:08.406',-0.220
'0:08.408',-0.310
'0:08.410',-0.300
'0:08.412',-0.255
'0:08.414',-0.225
'0:08.416',-0.200
'0:08.418',-0.075
'0:08.420',-0.015
'0:08.422',-0.040
'0:08.424',-0.140
'0:08.426',-0.155
'0:08.428',-0.280
'0:08.430',-0.345
'0:08.432',-0.270
'0:08.434',-0.245
'0:08.436',-0.115
'0:08.438',-0.055
'0:08.440',-0.085
'0:08.442',-0.120
'0:08.444',-0.100
'0:08.446',-0.185
'0:08.448',-0.310
'0:08.450',-0.330
'0:08.452',-0.325
'0:08.454',-0.255
'0:08.456',-0.085
'0:08.458',-0.075
'0:08.460',-0.090
'0:08.462',-0.090
'0:08.464',-0.115
'0:08.466',-0.220
'0:08.468',-0.315
'0:08.470',-0.345
'0:08.472',-0.280
'0:08.474',-0.270
'0:08.476',-0.155
'0:08.478',-0.085
'0:08.480',-0.040
'0:08.482',-0.085
'0:08.484',-0.160
'0:08.486',-0.240
'0:08.488',-0.340
'0:08.490',-0.385
'0:08.492',-0.280
'0:08.494',-0.190
'0:08.496',-0.160
'0:08.498',-0.090
'0:08.500',-0.045
'0:08.502',-0.135
'0:08.504',-0.165
'0:08.506',-0.255
'0:08.508',-0.335
'0:08.510',-0.335
'0:08.512',-0.295
'0:08.514',-0.285
'0:08.516',-0.125
'0:08.518',-0.085
'0:08.520',-0.085
'0:08.522',-0.120
'0:08.524',-0.170
'0:08.526',-0.300
'0:08.528',-0.310
'0:08.530',-0.370
'0:08.532',-0.315
'0:08.534',-0.245
'0:08.536',-0.160
'0:08.538',-0.105
'0:08.540',-0.110
'0:08.542',-0.115
'0:08.544',-0.180
'0:08.546',-0.245
'0:08.548',-0.420
'0:08.550',-0.425
'0:08.552',-0.270
'0:08.554',-0.265
'0:08.556',-0.155
'0:08.558',-0.105
'0:08.560',-0.095
'0:08.562',-0.145
'0:08.564',-0.190
'0:08.566',-0.320
'0:08.568',-0.345
'0:08.570',-0.335
'0:08.572',-0.305
'0:08.574',-0.305
'0:08.576',-0.235
'0:08.578',-0.190
'0:08.580',-0.030
'0:08.582',-0.095
'0:08.584',-0.180
'0:08.586',-0.265
'0:08.588',-0.350
'0:08.590',-0.335
'0:08.592',-0.280
'0:08.594',-0.275
'0:08.596',-0.130
'0:08.598',-0.075
'0:08.600',-0.120
'0:08.602',-0.145
'0:08.604',-0.225
'0:08.606',-0.310
'0:08.608',-0.365
'0:08.610',-0.335
'0:08.612',-0.310
'0:08.614',-0.240
'0:08.616',-0.125
'0:08.618',-0.040
'0:08.620',-0.065
'0:08.622',-0.155
'0:08.624',-0.225
'0:08.626',-0.285
'0:08.628',-0.420
'0:08.630',-0.400
'0:08.632',-0.335
'0:08.634',-0.220
'0:08.636',-0.120
'0:08.638',-0.085
'0:08.640',-0.130
'0:08.642',-0.150
'0:08.644',-0.245
'0:08.646',-0.365
'0:08.648',-0.330
'0:08.650',-0.350
'0:08.652',-0.310
'0:08.654',-0.235
'0:08.656',-0.130
'0:08.658',-0.150
'0:08.660',-0.160
'0:08.662',-0.160
'0:08.664',-0.200
'0:08.666',-0.330
'0:08.668',-0.440
'0:08.670',-0.355
'0:08.672',-0.295
'0:08.674',-0.215
'0:08.676',-0.125
'0:08.678',-0.085
'0:08.680',-0.140
'0:08.682',-0.220
'0:08.684',-0.255
'0:08.686',-0.355
'0:08.688',-0.430
'0:08.690',-0.375
'0:08.692',-0.370
'0:08.694',-0.210
'0:08.696',-0.010
'0:08.698',-0.015
'0:08.700',-0.150
'0:08.702',-0.165
'0:08.704',-0.270
'0:08.706',-0.385
'0:08.708',-0.385
'0:08.710',-0.355
'0:08.712',-0.300
'0:08.714',-0.225
'0:08.716',-0.135
'0:08.718',-0.135
'0:08.720',-0.175
'0:08.722',-0.195
'0:08.724',-0.290
'0:08.726',-0.315
'0:08.728',-0.385
'0:08.730',-0.400
'0:08.732',-0.365
'0:08.734',-0.135
'0:08.736',-0.095
'0:08.738',-0.100
'0:08.740',-0.160
'0:08.742',-0.185
'0:08.744',-0.310
'0:08.746',-0.380
'0:08.748',-0.350
'0:08.750',-0.330
'0:08.752',-0.330
'0:08.754',-0.195
'0:08.756',-0.125
'0:08.758',-0.090
'0:08.760',-0.160
'0:08.762',-0.245
'0:08.764',-0.305
'0:08.766',-0.360
'0:08.768',-0.375
'0:08.770',-0.345
'0:08.772',-0.305
'0:08.774',-0.170
'0:08.776',-0.110
'0:08.778',-0.105
'0:08.780',-0.155
'0:08.782',-0.210
'0:08.784',-0.320
'0:08.786',-0.345
'0:08.788',-0.360
'0:08.790',-0.335
'0:08.792',-0.315
'0:08.794',-0.200
'0:08.796',-0.070
'0:08.798',-0.100
'0:08.800',-0.140
'0:08.802',-0.195
'0:08.804',-0.290
'0:08.806',-0.380
'0:08.808',-0.420
'0:08.810',-0.370
'0:08.812',-0.305
'0:08.814',-0.135
'0:08.816',-0.110
'0:08.818',-0.110
'0:08.820',-0.120
'0:08.822',-0.180
'0:08.824',-0.210
'0:08.826',-0.275
'0:08.828',-0.300
'0:08.830',-0.275
'0:08.832',-0.210
'0:08.834',-0.135
'0:08.836',-0.030
'0:08.838',-0.025
'0:08.840',-0.110
'0:08.842',-0.165
'0:08.844',-0.300
'0:08.846',-0.310
'0:08.848',-0.355
'0:08.850',-0.305
'0:08.852',-0.160
'0:08.854',-0.080
'0:08.856',-0.050
'0:08.858',-0.215
'0:08.860',-0.135
'0:08.862',-0.285
'0:08.864',-0.205
'0:08.866',-0.315
'0:08.868',-0.320
'0:08.870',-0.305
'0:08.872',-0.260
'0:08.874',-0.205
'0:08.876',-0.055
'0:08.878',-0.130
'0:08.880',-0.155
'0:08.882',-0.210
'0:08.884',-0.335
'0:08.886',-0.400
'0:08.888',-0.365
'0:08.890',-0.310
'0:08.892',-0.245
'0:08.894',-0.170
'0:08.896',-0.110
'0:08.898',-0.155
'0:08.900',-0.185
'0:08.902',-0.260
'0:08.904',-0.325
'0:08.906',-0.365
'0:08.908',-0.420
'0:08.910',-0.385
'0:08.912',-0.290
'0:08.914',-0.210
'0:08.916',-0.185
'0:08.918',-0.165
'0:08.920',-0.170
'0:08.922',-0.250
'0:08.924',-0.355
'0:08.926',-0.380
'0:08.928',-0.375
'0:08.930',-0.305
'0:08.932',-0.275
'0:08.934',-0.155
'0:08.936',-0.145
'0:08.938',-0.155
'0:08.940',-0.240
'0:08.942',-0.270
'0:08.944',-0.380
'0:08.946',-0.435
'0:08.948',-0.355
'0:08.950',-0.330
'0:08.952',-0.315
'0:08.954',-0.160
'0:08.956',-0.140
'0:08.958',-0.170
'0:08.960',-0.250
'0:08.962',-0.305
'0:08.964',-0.380
'0:08.966',-0.370
'0:08.968',-0.345
'0:08.970',-0.265
'0:08.972',-0.120
'0:08.974',0.015
'0:08.976',0.095
'0:08.978',0.065
'0:08.980',0.140
'0:08.982',0.115
'0:08.984',0.145
'0:08.986',0.115
'0:08.988',0.255
'0:08.990',0.205
'0:08.992',0.180
'0:08.994',0.180
'0:08.996',0.190
'0:08.998',0.025
'0:09.000',-0.095
'0:09.002',-0.230
'0:09.004',-0.435
'0:09.006',-0.535
'0:09.008',-0.485
'0:09.010',-0.445
'0:09.012',-0.395
'0:09.014',-0.375
'0:09.016',-0.360
'0:09.018',-0.345
'0:09.020',-0.425
'0:09.022',-0.455
'0:09.024',-0.495
'0:09.026',-0.515
'0:09.028',-0.430
'0:09.030',-0.375
'0:09.032',-0.245
'0:09.034',-0.170
'0:09.036',-0.160
'0:09.038',-0.185
'0:09.040',-0.255
'0:09.042',-0.320
'0:09.044',-0.425
'0:09.046',-0.425
'0:09.048',-0.350
'0:09.050',-0.340
'0:09.052',-0.235
'0:09.054',-0.185
'0:09.056',-0.125
'0:09.058',-0.160
'0:09.060',-0.255
'0:09.062',-0.380
'0:09.064',-0.460
'0:09.066',-0.365
'0:09.068',-0.315
'0:09.070',-0.275
'0:09.072',-0.205
'0:09.074',-0.160
'0:09.076',-0.165
'0:09.078',-0.175
'0:09.080',-0.215
'0:09.082',-0.365
'0:09.084',-0.360
'0:09.086',-0.435
'0:09.088',-0.325
'0:09.090',-0.260
'0:09.092',-0.190
'0:09.094',-0.180
'0:09.096',-0.195
'0:09.098',-0.185
'0:09.100',-0.165
'0:09.102',-0.200
'0:09.104',-0.310
'0:09.106',-0.385
'0:09.108',-0.310
'0:09.110',-0.265
'0:09.112',-0.125
'0:09.114',-0.120
'0:09.116',-0.135
'0:09.118',-0.170
'0:09.120',-0.220
'0:09.122',-0.340
'0:09.124',-0.370
'0:09.126',-0.390
'0:09.128',-0.310
'0:09.130',-0.260
'0:09.132',-0.160
'0:09.134',-0.110
'0:09.136',-0.130
'0:09.138',-0.155
'0:09.140',-0.140
'0:09.142',-0.270
'0:09.144',-0.385
'0:09.146',-0.355
'0:09.148',-0.255
'0:09.150',-0.220
'0:09.152',-0.125
'0:09.154',-0.050
'0:09.156',-0.075
'0:09.158',-0.115
'0:09.160',-0.170
'0:09.162',-0.260
'0:09.164',-0.315
'0:09.166',-0.290
'0:09.168',-0.235
'0:09.170',-0.205
'0:09.172',-0.100
'0:09.174',-0.080
'0:09.176',-0.040
'0:09.178',-0.025
'0:09.180',-0.115
'0:09.182',-0.245
'0:09.184',-0.280
'0:09.186',-0.345
'0:09.188',-0.180
'0:09.190',-0.055
'0:09.192',0.130
'0:09.194',0.100
'0:09.196',0.070
'0:09.198',0.045
'0:09.200',-0.025
'0:09.202',-0.145
'0:09.204',-0.160
'0:09.206',-0.165
'0:09.208',-0.110
'0:09.210',-0.015
'0:09.212',0.085
'0:09.214',0.145
'0:09.216',0.095
'0:09.218',0.035
'0:09.220',0.075
'0:09.222',-0.035
'0:09.224',-0.085
'0:09.226',-0.070
'0:09.228',-0.035
'0:09.230',0.010
'0:09.232',0.135
'0:09.234',0.195
'0:09.236',0.145
'0:09.238',0.145
'0:09.240',0.030
'0:09.242',-0.065
'0:09.244',-0.095
'0:09.246',-0.060
'0:09.248',-0.050
'0:09.250',0.045
'0:09.252',0.110
'0:09.254',0.120
'0:09.256',0.085
'0:09.258',0.040
'0:09.260',-0.085
'0:09.262',-0.160
'0:09.264',-0.160
'0:09.266',-0.150
'0:09.268',-0.035
'0:09.270',0.030
'0:09.272',0.060
'0:09.274',0.080
'0:09.276',0.015
'0:09.278',-0.075
'0:09.280',-0.150
'0:09.282',-0.250
'0:09.284',-0.290
'0:09.286',-0.250
'0:09.288',-0.195
'0:09.290',-0.195
'0:09.292',-0.120
'0:09.294',-0.100
'0:09.296',-0.065
'0:09.298',-0.110
'0:09.300',-0.220
'0:09.302',-0.330
'0:09.304',-0.320
'0:09.306',-0.275
'0:09.308',-0.260
'0:09.310',-0.205
'0:09.312',-0.145
'0:09.314',-0.100
'0:09.316',-0.105
'0:09.318',-0.170
'0:09.320',-0.320
'0:09.322',-0.380
'0:09.324',-0.380
'0:09.326',-0.380
'0:09.328',-0.350
'0:09.330',-0.170
'0:09.332',-0.115
'0:09.334',-0.105
'0:09.336',-0.190
'0:09.338',-0.230
'0:09.340',-0.275
'0:09.342',-0.420
'0:09.344',-0.345
'0:09.346',-0.345
'0:09.348',-0.345
'0:09.350',-0.345
'0:09.352',-0.225
'0:09.354',0.000
'0:09.356',-0.095
'0:09.358',-0.195
'0:09.360',-0.295
'0:09.362',-0.365
'0:09.364',-0.375
'0:09.366',-0.335
'0:09.368',-0.305
'0:09.370',-0.205
'0:09.372',-0.140
'0:09.374',-0.125
'0:09.376',-0.175
'0:09.378',-0.240
'0:09.380',-0.310
'0:09.382',-0.405
'0:09.384',-0.415
'0:09.386',-0.360
'0:09.388',-0.335
'0:09.390',-0.215
'0:09.392',-0.065
'0:09.394',-0.150
'0:09.396',-0.185
'0:09.398',-0.220
'0:09.400',-0.355
'0:09.402',-0.385
'0:09.404',-0.395
'0:09.406',-0.350
'0:09.408',-0.290
'0:09.410',-0.185
'0:09.412',-0.145
'0:09.414',-0.145
'0:09.416',-0.215
'0:09.418',-0.275
'0:09.420',-0.350
'0:09.422',-0.410
'0:09.424',-0.400
'0:09.426',-0.365
'0:09.428',-0.290
'0:09.430',-0.195
'0:09.432',-0.155
'0:09.434',-0.150
'0:09.436',-0.240
'0:09.438',-0.345
'0:09.440',-0.390
'0:09.442',-0.330
'0:09.444',-0.375
'0:09.446',-0.315
'0:09.448',-0.310
'0:09.450',-0.185
'0:09.452',-0.115
'0:09.454',-0.160
'0:09.456',-0.210
'0:09.458',-0.265
'0:09.460',-0.385
'0:09.462',-0.435
'0:09.464',-0.415
'0:09.466',-0.355
'0:09.468',-0.330
'0:09.470',-0.335
'0:09.472',-0.145
'0:09.474',-0.065
'0:09.476',-0.160
'0:09.478',-0.325
'0:09.480',-0.395
'0:09.482',-0.395
'0:09.484',-0.440
'0:09.486',-0.355
'0:09.488',-0.290
'0:09.490',-0.225
'0:09.492',-0.200
'0:09.494',-0.200
'0:09.496',-0.210
'0:09.498',-0.310
'0:09.500',-0.410
'0:09.502',-0.475
'0:09.504',-0.445
'0:09.506',-0.375
'0:09.508',-0.305
'0:09.510',-0.215
'0:09.512',-0.210
'0:09.514',-0.190
'0:09.516',-0.185
'0:09.518',-0.355
'0:09.520',-0.460
'0:09.522',-0.425
'0:09.524',-0.420
'0:09.526',-0.360
'0:09.528',-0.285
'0:09.530',-0.220
'0:09.532',-0.210
'0:09.534',-0.180
'0:09.536',-0.270
'0:09.538',-0.335
'0:09.540',-0.420
'0:09.542',-0.440
'0:09.544',-0.460
'0:09.546',-0.400
'0:09.548',-0.320
'0:09.550',-0.230
'0:09.552',-0.200
'0:09.554',-0.245
'0:09.556',-0.325
'0:09.558',-0.390
'0:09.560',-0.390
'0:09.562',-0.450
'0:09.564',-0.480
'0:09.566',-0.375
'0:09.568',-0.280
'0:09.570',-0.205
'0:09.572',-0.195
'0:09.574',-0.260
'0:09.576',-0.275
'0:09.578',-0.395
'0:09.580',-0.390
'0:09.582',-0.475
'0:09.584',-0.410
'0:09.586',-0.340
'0:09.588',-0.305
'0:09.590',-0.225
'0:09.592',-0.205
'0:09.594',-0.245
'0:09.596',-0.275
'0:09.598',-0.380
'0:09.600',-0.510
'0:09.602',-0.420
'0:09.604',-0.440
'0:09.606',-0.375
'0:09.608',-0.270
'0:09.610',-0.205
'0:09.612',-0.190
'0:09.614',-0.230
'0:09.616',-0.315
'0:09.618',-0.420
'0:09.620',-0.445
'0:09.622',-0.460
'0:09.624',-0.420
'0:09.626',-0.390
'0:09.628',-0.255
'0:09.630',-0.215
'0:09.632',-0.195
'0:09.634',-0.240
'0:09.636',-0.325
'0:09.638',-0.405
'0:09.640',-0.455
'0:09.642',-0.445
'0:09.644',-0.425
'0:09.646',-0.385
'0:09.648',-0.275
'0:09.650',-0.200
'0:09.652',-0.210
'0:09.654',-0.255
'0:09.656',-0.270
'0:09.658',-0.385
'0:09.660',-0.385
'0:09.662',-0.405
'0:09.664',-0.390
'0:09.666',-0.320
'0:09.668',-0.205
'0:09.670',-0.220
'0:09.672',-0.185
'0:09.674',-0.255
'0:09.676',-0.170
'0:09.678',-0.300
'0:09.680',-0.380
'0:09.682',-0.465
'0:09.684',-0.360
'0:09.686',-0.305
'0:09.688',-0.145
'0:09.690',-0.175
'0:09.692',-0.155
'0:09.694',-0.230
'0:09.696',-0.250
'0:09.698',-0.365
'0:09.700',-0.385
'0:09.702',-0.400
'0:09.704',-0.385
'0:09.706',-0.385
'0:09.708',-0.260
'0:09.710',-0.225
'0:09.712',-0.205
'0:09.714',-0.260
'0:09.716',-0.320
'0:09.718',-0.410
'0:09.720',-0.485
'0:09.722',-0.440
'0:09.724',-0.430
'0:09.726',-0.385
'0:09.728',-0.290
'0:09.730',-0.255
'0:09.732',-0.240
'0:09.734',-0.270
'0:09.736',-0.320
'0:09.738',-0.505
'0:09.740',-0.460
'0:09.742',-0.510
'0:09.744',-0.420
'0:09.746',-0.340
'0:09.748',-0.285
'0:09.750',-0.210
'0:09.752',-0.245
'0:09.754',-0.305
'0:09.756',-0.420
'0:09.758',-0.460
'0:09.760',-0.485
'0:09.762',-0.485
'0:09.764',-0.405
'0:09.766',-0.365
'0:09.768',-0.240
'0:09.770',-0.215
'0:09.772',-0.240
'0:09.774',-0.295
'0:09.776',-0.405
'0:09.778',-0.505
'0:09.780',-0.495
'0:09.782',-0.450
'0:09.784',-0.450
'0:09.786',-0.410
'0:09.788',-0.360
'0:09.790',-0.255
'0:09.792',-0.190
'0:09.794',-0.260
'0:09.796',-0.385
'0:09.798',-0.500
'0:09.800',-0.475
'0:09.802',-0.505
'0:09.804',-0.440
'0:09.806',-0.400
'0:09.808',-0.320
'0:09.810',-0.260
'0:09.812',-0.295
'0:09.814',-0.350
'0:09.816',-0.395
'0:09.818',-0.435
'0:09.820',-0.425
'0:09.822',-0.370
'0:09.824',-0.205
'0:09.826',-0.050
'0:09.828',0.075
'0:09.830',0.175
'0:09.832',0.235
'0:09.834',0.265
'0:09.836',0.205
'0:09.838',0.045
'0:09.840',-0.040
'0:09.842',-0.130
'0:09.844',-0.145
'0:09.846',-0.140
'0:09.848',-0.070
'0:09.850',-0.170
'0:09.852',-0.360
'0:09.854',-0.465
'0:09.856',-0.620
'0:09.858',-0.695
'0:09.860',-0.770
'0:09.862',-0.705
'0:09.864',-0.635
'0:09.866',-0.535
'0:09.868',-0.450
'0:09.870',-0.420
'0:09.872',-0.395
'0:09.874',-0.440
'0:09.876',-0.530
'0:09.878',-0.560
'0:09.880',-0.575
'0:09.882',-0.535
'0:09.884',-0.460
'0:09.886',-0.340
'0:09.888',-0.280
'0:09.890',-0.265
'0:09.892',-0.255
'0:09.894',-0.270
'0:09.896',-0.445
'0:09.898',-0.525
'0:09.900',-0.590
'0:09.902',-0.430
'0:09.904',-0.380
'0:09.906',-0.380
'0:09.908',-0.280
'0:09.910',-0.275
'0:09.912',-0.290
'0:09.914',-0.350
'0:09.916',-0.490
'0:09.918',-0.530
'0:09.920',-0.485
'0:09.922',-0.475
'0:09.924',-0.375
'0:09.926',-0.315
'0:09.928',-0.255
'0:09.930',-0.180
'0:09.932',-0.315
'0:09.934',-0.355
'0:09.936',-0.425
'0:09.938',-0.505
'0:09.940',-0.505
'0:09.942',-0.435
'0:09.944',-0.410
'0:09.946',-0.315
'0:09.948',-0.250
'0:09.950',-0.245
'0:09.952',-0.275
'0:09.954',-0.360
'0:09.956',-0.430
'0:09.958',-0.440
'0:09.960',-0.485
'0:09.962',-0.430
'0:09.964',-0.405
'0:09.966',-0.275
'0:09.968',-0.205
'0:09.970',-0.235
'0:09.972',-0.300
'0:09.974',-0.350
'0:09.976',-0.420
'0:09.978',-0.470
'0:09.980',-0.430
'0:09.982',-0.435
'0:09.984',-0.380
'0:09.986',-0.290
'0:09.988',-0.230
'0:09.990',-0.205
'0:09.992',-0.255
'0:09.994',-0.300
'0:09.996',-0.455
'0:09.998',-0.475
'0:10.000',-0.490
'0:10.002',-0.465
'0:10.004',-0.345
'0:10.006',-0.285
'0:10.008',-0.230
'0:10.010',-0.220
'0:10.012',-0.135
'0:10.014',-0.260
'0:10.016',-0.335
'0:10.018',-0.455
'0:10.020',-0.455
'0:10.022',-0.365
'0:10.024',-0.280
'0:10.026',-0.155
'0:10.028',-0.120
'0:10.030',-0.180
'0:10.032',-0.185
'0:10.034',-0.250
'0:10.036',-0.350
'0:10.038',-0.410
'0:10.040',-0.390
'0:10.042',-0.275
'0:10.044',-0.215
'0:10.046',-0.120
'0:10.048',-0.055
'0:10.050',-0.065
'0:10.052',-0.110
'0:10.054',-0.195
'0:10.056',-0.290
'0:10.058',-0.195
'0:10.060',-0.280
'0:10.062',-0.250
'0:10.064',-0.130
'0:10.066',-0.025
'0:10.068',0.040
'0:10.070',0.015
'0:10.072',-0.055
'0:10.074',-0.100
'0:10.076',-0.200
'0:10.078',-0.240
'0:10.080',-0.210
'0:10.082',-0.160
'0:10.084',-0.070
'0:10.086',0.015
'0:10.088',0.025
'0:10.090',-0.010
'0:10.092',-0.065
'0:10.094',-0.130
'0:10.096',-0.215
'0:10.098',-0.280
'0:10.100',-0.260
'0:10.102',-0.175
'0:10.104',-0.135
'0:10.106',-0.075
'0:10.108',-0.050
'0:10.110',-0.115
'0:10.112',-0.185
'0:10.114',-0.235
'0:10.116',-0.335
'0:10.118',-0.360
'0:10.120',-0.395
'0:10.122',-0.350
'0:10.124',-0.250
'0:10.126',-0.140
'0:10.128',-0.205
'0:10.130',-0.205
'0:10.132',-0.285
'0:10.134',-0.365
'0:10.136',-0.390
'0:10.138',-0.465
'0:10.140',-0.430
'0:10.142',-0.440
'0:10.144',-0.350
'0:10.146',-0.280
'0:10.148',-0.245
'0:10.150',-0.320
'0:10.152',-0.380
'0:10.154',-0.430
'0:10.156',-0.500
'0:10.158',-0.610
'0:10.160',-0.540
'0:10.162',-0.425
'0:10.164',-0.375
'0:10.166',-0.300
'0:10.168',-0.265
'0:10.170',-0.335
'0:10.172',-0.390
'0:10.174',-0.475
'0:10.176',-0.540
'0:10.178',-0.570
'0:10.180',-0.535
'0:10.182',-0.495
'0:10.184',-0.325
'0:10.186',-0.280
'0:10.188',-0.305
'0:10.190',-0.345
'0:10.192',-0.365
'0:10.194',-0.495
'0:10.196',-0.535
'0:10.198',-0.555
'0:10.200',-0.545
'0:10.202',-0.485
'0:10.204',-0.370
'0:10.206',-0.315
'0:10.208',-0.290
'0:10.210',-0.385
'0:10.212',-0.365
'0:10.214',-0.460
'0:10.216',-0.560
'0:10.218',-0.555
'0:10.220',-0.535
'0:10.222',-0.465
'0:10.224',-0.360
'0:10.226',-0.295
'0:10.228',-0.290
'0:10.230',-0.410
'0:10.232',-0.415
'0:10.234',-0.520
'0:10.236',-0.605
'0:10.238',-0.585
'0:10.240',-0.535
'0:10.242',-0.485
'0:10.244',-0.305
'0:10.246',-0.260
'0:10.248',-0.300
'0:10.250',-0.360
'0:10.252',-0.390
'0:10.254',-0.535
'0:10.256',-0.595
'0:10.258',-0.550
'0:10.260',-0.525
'0:10.262',-0.460
'0:10.264',-0.370
'0:10.266',-0.325
'0:10.268',-0.310
'0:10.270',-0.380
'0:10.272',-0.395
'0:10.274',-0.545
'0:10.276',-0.560
'0:10.278',-0.590
'0:10.280',-0.535
'0:10.282',-0.395
'0:10.284',-0.380
'0:10.286',-0.305
'0:10.288',-0.405
'0:10.290',-0.400
'0:10.292',-0.350
'0:10.294',-0.505
'0:10.296',-0.595
'0:10.298',-0.575
'0:10.300',-0.510
'0:10.302',-0.460
'0:10.304',-0.375
'0:10.306',-0.330
'0:10.308',-0.355
'0:10.310',-0.415
'0:10.312',-0.480
'0:10.314',-0.565
'0:10.316',-0.640
'0:10.318',-0.600
'0:10.320',-0.505
'0:10.322',-0.475
'0:10.324',-0.400
'0:10.326',-0.300
'0:10.328',-0.360
'0:10.330',-0.390
'0:10.332',-0.475
'0:10.334',-0.585
'0:10.336',-0.620
'0:10.338',-0.625
'0:10.340',-0.570
'0:10.342',-0.480
'0:10.344',-0.390
'0:10.346',-0.360
'0:10.348',-0.385
'0:10.350',-0.425
'0:10.352',-0.505
'0:10.354',-0.610
'0:10.356',-0.685
'0:10.358',-0.670
'0:10.360',-0.540
'0:10.362',-0.450
'0:10.364',-0.385
'0:10.366',-0.385
'0:10.368',-0.335
'0:10.370',-0.435
'0:10.372',-0.530
'0:10.374',-0.590
'0:10.376',-0.640
'0:10.378',-0.605
'0:10.380',-0.580
'0:10.382',-0.490
'0:10.384',-0.440
'0:10.386',-0.405
'0:10.388',-0.395
'0:10.390',-0.460
'0:10.392',-0.565
'0:10.394',-0.645
'0:10.396',-0.600
'0:10.398',-0.605
'0:10.400',-0.625
'0:10.402',-0.475
'0:10.404',-0.420
'0:10.406',-0.385
'0:10.408',-0.415
'0:10.410',-0.460
'0:10.412',-0.565
'0:10.414',-0.655
'0:10.416',-0.710
'0:10.418',-0.580
'0:10.420',-0.535
'0:10.422',-0.505
'0:10.424',-0.450
'0:10.426',-0.410
'0:10.428',-0.475
'0:10.430',-0.445
'0:10.432',-0.510
'0:10.434',-0.665
'0:10.436',-0.645
'0:10.438',-0.625
'0:10.440',-0.610
'0:10.442',-0.505
'0:10.444',-0.410
'0:10.446',-0.365
'0:10.448',-0.435
'0:10.450',-0.515
'0:10.452',-0.615
'0:10.454',-0.575
'0:10.456',-0.655
'0:10.458',-0.615
'0:10.460',-0.550
'0:10.462',-0.470
'0:10.464',-0.430
'0:10.466',-0.415
'0:10.468',-0.435
'0:10.470',-0.485
'0:10.472',-0.590
'0:10.474',-0.655
'0:10.476',-0.690
'0:10.478',-0.670
'0:10.480',-0.550
'0:10.482',-0.485
'0:10.484',-0.425
'0:10.486',-0.415
'0:10.488',-0.480
'0:10.490',-0.550
'0:10.492',-0.570
'0:10.494',-0.660
'0:10.496',-0.680
'0:10.498',-0.605
'0:10.500',-0.590
'0:10.502',-0.500
'0:10.504',-0.385
'0:10.506',-0.400
'0:10.508',-0.460
'0:10.510',-0.515
'0:10.512',-0.625
'0:10.514',-0.645
'0:10.516',-0.685
'0:10.518',-0.655
'0:10.520',-0.565
'0:10.522',-0.475
'0:10.524',-0.415
'0:10.526',-0.420
'0:10.528',-0.475
'0:10.530',-0.555
'0:10.532',-0.605
'0:10.534',-0.660
'0:10.536',-0.680
'0:10.538',-0.595
'0:10.540',-0.575
'0:10.542',-0.465
'0:10.544',-0.395
'0:10.546',-0.425
'0:10.548',-0.435
'0:10.550',-0.480
'0:10.552',-0.590
'0:10.554',-0.620
'0:10.556',-0.645
'0:10.558',-0.645
'0:10.560',-0.535
'0:10.562',-0.485
'0:10.564',-0.335
'0:10.566',-0.265
'0:10.568',-0.400
'0:10.570',-0.485
'0:10.572',-0.525
'0:10.574',-0.595
'0:10.576',-0.650
'0:10.578',-0.575
'0:10.580',-0.520
'0:10.582',-0.410
'0:10.584',-0.355
'0:10.586',-0.390
'0:10.588',-0.430
'0:10.590',-0.525
'0:10.592',-0.580
'0:10.594',-0.670
'0:10.596',-0.665
'0:10.598',-0.640
'0:10.600',-0.555
'0:10.602',-0.510
'0:10.604',-0.480
'0:10.606',-0.430
'0:10.608',-0.510
'0:10.610',-0.550
'0:10.612',-0.665
'0:10.614',-0.710
'0:10.616',-0.705
'0:10.618',-0.625
'0:10.620',-0.580
'0:10.622',-0.455
'0:10.624',-0.470
'0:10.626',-0.480
'0:10.628',-0.535
'0:10.630',-0.665
'0:10.632',-0.680
'0:10.634',-0.695
'0:10.636',-0.665
'0:10.638',-0.660
'0:10.640',-0.585
'0:10.642',-0.485
'0:10.644',-0.425
'0:10.646',-0.490
'0:10.648',-0.550
'0:10.650',-0.605
'0:10.652',-0.615
'0:10.654',-0.750
'0:10.656',-0.725
'0:10.658',-0.685
'0:10.660',-0.580
'0:10.662',-0.500
'0:10.664',-0.440
'0:10.666',-0.500
'0:10.668',-0.460
'0:10.670',-0.580
'0:10.672',-0.760
'0:10.674',-0.740
'0:10.676',-0.705
'0:10.678',-0.675
'0:10.680',-0.565
'0:10.682',-0.500
'0:10.684',-0.485
'0:10.686',-0.510
'0:10.688',-0.540
'0:10.690',-0.670
'0:10.692',-0.755
'0:10.694',-0.705
'0:10.696',-0.680
'0:10.698',-0.695
'0:10.700',-0.585
'0:10.702',-0.495
'0:10.704',-0.425
'0:10.706',-0.365
'0:10.708',-0.380
'0:10.710',-0.425
'0:10.712',-0.470
'0:10.714',-0.465
'0:10.716',-0.280
'0:10.718',-0.120
'0:10.720',0.005
'0:10.722',0.095
'0:10.724',0.065
'0:10.726',-0.005
'0:10.728',-0.175
'0:10.730',-0.350
'0:10.732',-0.525
'0:10.734',-0.545
'0:10.736',-0.615
'0:10.738',-0.690
'0:10.740',-0.715
'0:10.742',-0.625
'0:10.744',-0.600
'0:10.746',-0.770
'0:10.748',-0.770
'0:10.750',-0.860
'0:10.752',-0.890
'0:10.754',-0.920
'0:10.756',-0.830
'0:10.758',-0.795
'0:10.760',-0.670
'0:10.762',-0.570
'0:10.764',-0.545
'0:10.766',-0.585
'0:10.768',-0.590
'0:10.770',-0.765
'0:10.772',-0.675
'0:10.774',-0.755
'0:10.776',-0.690
'0:10.778',-0.635
'0:10.780',-0.555
'0:10.782',-0.465
'0:10.784',-0.515
'0:10.786',-0.500
'0:10.788',-0.550
'0:10.790',-0.660
'0:10.792',-0.715
'0:10.794',-0.725
'0:10.796',-0.715
'0:10.798',-0.635
'0:10.800',-0.520
'0:10.802',-0.445
'0:10.804',-0.440
'0:10.806',-0.475
'0:10.808',-0.580
'0:10.810',-0.735
'0:10.812',-0.795
'0:10.814',-0.775
'0:10.816',-0.670
'0:10.818',-0.610
'0:10.820',-0.500
'0:10.822',-0.455
'0:10.824',-0.495
'0:10.826',-0.505
'0:10.828',-0.550
'0:10.830',-0.660
'0:10.832',-0.720
'0:10.834',-0.710
'0:10.836',-0.685
'0:10.838',-0.620
'0:10.840',-0.480
'0:10.842',-0.465
'0:10.844',-0.450
'0:10.846',-0.480
'0:10.848',-0.580
'0:10.850',-0.670
'0:10.852',-0.665
'0:10.854',-0.710
'0:10.856',-0.660
'0:10.858',-0.575
'0:10.860',-0.525
'0:10.862',-0.445
'0:10.864',-0.465
'0:10.866',-0.470
'0:10.868',-0.540
'0:10.870',-0.680
'0:10.872',-0.760
'0:10.874',-0.705
'0:10.876',-0.600
'0:10.878',-0.550
'0:10.880',-0.495
'0:10.882',-0.445
'0:10.884',-0.410
'0:10.886',-0.445
'0:10.888',-0.615
'0:10.890',-0.670
'0:10.892',-0.660
'0:10.894',-0.655
'0:10.896',-0.610
'0:10.898',-0.525
'0:10.900',-0.435
'0:10.902',-0.410
'0:10.904',-0.395
'0:10.906',-0.435
'0:10.908',-0.475
'0:10.910',-0.620
'0:10.912',-0.655
'0:10.914',-0.605
'0:10.916',-0.590
'0:10.918',-0.495
'0:10.920',-0.415
'0:10.922',-0.260
'0:10.924',-0.305
'0:10.926',-0.380
'0:10.928',-0.455
'0:10.930',-0.540
'0:10.932',-0.580
'0:10.934',-0.500
'0:10.936',-0.475
'0:10.938',-0.355
'0:10.940',-0.275
'0:10.942',-0.250
'0:10.944',-0.255
'0:10.946',-0.305
'0:10.948',-0.335
'0:10.950',-0.480
'0:10.952',-0.500
'0:10.954',-0.485
'0:10.956',-0.355
'0:10.958',-0.250
'0:10.960',-0.200
'0:10.962',-0.230
'0:10.964',-0.225
'0:10.966',-0.190
'0:10.968',-0.345
'0:10.970',-0.425
'0:10.972',-0.435
'0:10.974',-0.430
'0:10.976',-0.350
'0:10.978',-0.270
'0:10.980',-0.200
'0:10.982',-0.145
'0:10.984',-0.250
'0:10.986',-0.320
'0:10.988',-0.350
'0:10.990',-0.470
'0:10.992',-0.510
'0:10.994',-0.455
'0:10.996',-0.465
'0:10.998',-0.355
'0:11.000',-0.305
'0:11.002',-0.330
'0:11.004',-0.345
'0:11.006',-0.370
'0:11.008',-0.535
'0:11.010',-0.595
'0:11.012',-0.625
'0:11.014',-0.570
'0:11.016',-0.540
'0:11.018',-0.525
'0:11.020',-0.380
'0:11.022',-0.400
'0:11.024',-0.470
'0:11.026',-0.455
'0:11.028',-0.615
'0:11.030',-0.685
'0:11.032',-0.715
'0:11.034',-0.670
'0:11.036',-0.680
'0:11.038',-0.540
'0:11.040',-0.470
'0:11.042',-0.480
'0:11.044',-0.490
'0:11.046',-0.590
'0:11.048',-0.670
'0:11.050',-0.785
'0:11.052',-0.765
'0:11.054',-0.675
'0:11.056',-0.665
'0:11.058',-0.550
'0:11.060',-0.525
'0:11.062',-0.505
'0:11.064',-0.555
'0:11.066',-0.580
'0:11.068',-0.660
'0:11.070',-0.735
'0:11.072',-0.815
'0:11.074',-0.710
'0:11.076',-0.675
'0:11.078',-0.575
'0:11.080',-0.490
'0:11.082',-0.480
'0:11.084',-0.520
'0:11.086',-0.650
'0:11.088',-0.715
'0:11.090',-0.765
'0:11.092',-0.725
'0:11.094',-0.740
'0:11.096',-0.675
'0:11.098',-0.560
'0:11.100',-0.510
'0:11.102',-0.580
'0:11.104',-0.580
'0:11.106',-0.685
'0:11.108',-0.645
'0:11.110',-0.750
'0:11.112',-0.765
'0:11.114',-0.725
'0:11.116',-0.670
'0:11.118',-0.525
'0:11.120',-0.505
'0:11.122',-0.520
'0:11.124',-0.570
'0:11.126',-0.660
'0:11.128',-0.750
'0:11.130',-0.760
'0:11.132',-0.755
'0:11.134',-0.735
'0:11.136',-0.670
'0:11.138',-0.570
'0:11.140',-0.485
'0:11.142',-0.560
'0:11.144',-0.570
'0:11.146',-0.630
'0:11.148',-0.695
'0:11.150',-0.795
'0:11.152',-0.800
'0:11.154',-0.750
'0:11.156',-0.680
'0:11.158',-0.545
'0:11.160',-0.485
'0:11.162',-0.575
'0:11.164',-0.615
'0:11.166',-0.640
'0:11.168',-0.740
'0:11.170',-0.780
'0:11.172',-0.770
'0:11.174',-0.735
'0:11.176',-0.655
'0:11.178',-0.565
'0:11.180',-0.535
'0:11.182',-0.540
'0:11.184',-0.580
'0:11.186',-0.675
'0:11.188',-0.785
'0:11.190',-0.785
'0:11.192',-0.810
'0:11.194',-0.745
'0:11.196',-0.645
'0:11.198',-0.545
'0:11.200',-0.525
'0:11.202',-0.560
'0:11.204',-0.630
'0:11.206',-0.690
'0:11.208',-0.770
'0:11.210',-0.770
'0:11.212',-0.800
'0:11.214',-0.780
'0:11.216',-0.690
'0:11.218',-0.630
'0:11.220',-0.480
'0:11.222',-0.570
'0:11.224',-0.685
'0:11.226',-0.670
'0:11.228',-0.770
'0:11.230',-0.870
'0:11.232',-0.740
'0:11.234',-0.735
'0:11.236',-0.615
'0:11.238',-0.565
'0:11.240',-0.530
'0:11.242',-0.575
'0:11.244',-0.655
'0:11.246',-0.715
'0:11.248',-0.780
'0:11.250',-0.815
'0:11.252',-0.795
'0:11.254',-0.810
'0:11.256',-0.675
'0:11.258',-0.575
'0:11.260',-0.545
'0:11.262',-0.625
'0:11.264',-0.635
'0:11.266',-0.710
'0:11.268',-0.800
'0:11.270',-0.795
'0:11.272',-0.815
'0:11.274',-0.805
'0:11.276',-0.635
'0:11.278',-0.570
'0:11.280',-0.540
'0:11.282',-0.625
'0:11.284',-0.705
'0:11.286',-0.735
'0:11.288',-0.840
'0:11.290',-0.850
'0:11.292',-0.820
'0:11.294',-0.750
'0:11.296',-0.665
'0:11.298',-0.610
'0:11.300',-0.585
'0:11.302',-0.630
'0:11.304',-0.645
'0:11.306',-0.755
'0:11.308',-0.830
'0:11.310',-0.835
'0:11.312',-0.800
'0:11.314',-0.770
'0:11.316',-0.650
'0:11.318',-0.570
'0:11.320',-0.590
'0:11.322',-0.600
'0:11.324',-0.620
'0:11.326',-0.735
'0:11.328',-0.845
'0:11.330',-0.865
'0:11.332',-0.820
'0:11.334',-0.725
'0:11.336',-0.610
'0:11.338',-0.615
'0:11.340',-0.635
'0:11.342',-0.595
'0:11.344',-0.655
'0:11.346',-0.740
'0:11.348',-0.830
'0:11.350',-0.845
'0:11.352',-0.780
'0:11.354',-0.730
'0:11.356',-0.660
'0:11.358',-0.605
'0:11.360',-0.545
'0:11.362',-0.645
'0:11.364',-0.690
'0:11.366',-0.815
'0:11.368',-0.835
'0:11.370',-0.795
'0:11.372',-0.795
'0:11.374',-0.735
'0:11.376',-0.595
'0:11.378',-0.580
'0:11.380',-0.600
'0:11.382',-0.655
'0:11.384',-0.730
'0:11.386',-0.780
'0:11.388',-0.805
'0:11.390',-0.830
'0:11.392',-0.785
'0:11.394',-0.785
'0:11.396',-0.655
'0:11.398',-0.575
'0:11.400',-0.580
'0:11.402',-0.625
'0:11.404',-0.665
'0:11.406',-0.805
'0:11.408',-0.865
'0:11.410',-0.845
'0:11.412',-0.805
'0:11.414',-0.705
'0:11.416',-0.630
'0:11.418',-0.575
'0:11.420',-0.610
'0:11.422',-0.640
'0:11.424',-0.685
'0:11.426',-0.785
'0:11.428',-0.850
'0:11.430',-0.840
'0:11.432',-0.780
'0:11.434',-0.720
'0:11.436',-0.640
'0:11.438',-0.565
'0:11.440',-0.590
'0:11.442',-0.635
'0:11.444',-0.700
'0:11.446',-0.790
'0:11.448',-0.830
'0:11.450',-0.830
'0:11.452',-0.770
'0:11.454',-0.735
'0:11.456',-0.600
'0:11.458',-0.540
'0:11.460',-0.595
'0:11.462',-0.625
'0:11.464',-0.745
'0:11.466',-0.820
'0:11.468',-0.830
'0:11.470',-0.860
'0:11.472',-0.810
'0:11.474',-0.720
'0:11.476',-0.635
'0:11.478',-0.545
'0:11.480',-0.605
'0:11.482',-0.645
'0:11.484',-0.715
'0:11.486',-0.805
'0:11.488',-0.865
'0:11.490',-0.825
'0:11.492',-0.830
'0:11.494',-0.710
'0:11.496',-0.635
'0:11.498',-0.565
'0:11.500',-0.560
'0:11.502',-0.590
'0:11.504',-0.730
'0:11.506',-0.740
'0:11.508',-0.830
'0:11.510',-0.790
'0:11.512',-0.755
'0:11.514',-0.665
'0:11.516',-0.600
'0:11.518',-0.545
'0:11.520',-0.570
'0:11.522',-0.630
'0:11.524',-0.690
'0:11.526',-0.720
'0:11.528',-0.765
'0:11.530',-0.725
'0:11.532',-0.670
'0:11.534',-0.575
'0:11.536',-0.515
'0:11.538',-0.520
'0:11.540',-0.565
'0:11.542',-0.590
'0:11.544',-0.670
'0:11.546',-0.780
'0:11.548',-0.825
'0:11.550',-0.775
'0:11.552',-0.730
'0:11.554',-0.580
'0:11.556',-0.510
'0:11.558',-0.510
'0:11.560',-0.575
'0:11.562',-0.635
'0:11.564',-0.695
'0:11.566',-0.780
'0:11.568',-0.825
'0:11.570',-0.775
'0:11.572',-0.775
'0:11.574',-0.625
'0:11.576',-0.580
'0:11.578',-0.550
'0:11.580',-0.620
'0:11.582',-0.635
'0:11.584',-0.750
'0:11.586',-0.850
'0:11.588',-0.890
'0:11.590',-0.815
'0:11.592',-0.795
'0:11.594',-0.670
'0:11.596',-0.605
'0:11.598',-0.595
'0:11.600',-0.635
'0:11.602',-0.705
'0:11.604',-0.690
'0:11.606',-0.815
'0:11.608',-0.870
'0:11.610',-0.805
'0:11.612',-0.795
'0:11.614',-0.675
'0:11.616',-0.595
'0:11.618',-0.570
'0:11.620',-0.590
'0:11.622',-0.670
'0:11.624',-0.805
'0:11.626',-0.880
'0:11.628',-0.850
'0:11.630',-0.780
'0:11.632',-0.760
'0:11.634',-0.705
'0:11.636',-0.610
'0:11.638',-0.600
'0:11.640',-0.650
'0:11.642',-0.715
'0:11.644',-0.750
'0:11.646',-0.850
'0:11.648',-0.845
'0:11.650',-0.780
'0:11.652',-0.750
'0:11.654',-0.675
'0:11.656',-0.640
'0:11.658',-0.590
'0:11.660',-0.660
'0:11.662',-0.720
'0:11.664',-0.815
'0:11.666',-0.900
'0:11.668',-0.880
'0:11.670',-0.780
'0:11.672',-0.775
'0:11.674',-0.640
'0:11.676',-0.520
'0:11.678',-0.520
'0:11.680',-0.555
'0:11.682',-0.525
'0:11.684',-0.460
'0:11.686',-0.475
'0:11.688',-0.390
'0:11.690',-0.265
'0:11.692',-0.160
'0:11.694',-0.075
'0:11.696',-0.105
'0:11.698',-0.190
'0:11.700',-0.315
'0:11.702',-0.435
'0:11.704',-0.635
'0:11.706',-0.755
'0:11.708',-0.790
'0:11.710',-0.840
'0:11.712',-0.890
'0:11.714',-0.830
'0:11.716',-0.820
'0:11.718',-0.815
'0:11.720',-0.875
'0:11.722',-0.930
'0:11.724',-1.025
'0:11.726',-1.025
'0:11.728',-1.055
'0:11.730',-0.930
'0:11.732',-0.820
'0:11.734',-0.675
'0:11.736',-0.630
'0:11.738',-0.630
'0:11.740',-0.630
'0:11.742',-0.740
'0:11.744',-0.815
'0:11.746',-0.860
'0:11.748',-0.840
'0:11.750',-0.840
'0:11.752',-0.750
'0:11.754',-0.640
'0:11.756',-0.595
'0:11.758',-0.565
'0:11.760',-0.645
'0:11.762',-0.740
'0:11.764',-0.790
'0:11.766',-0.850
'0:11.768',-0.825
'0:11.770',-0.790
'0:11.772',-0.750
'0:11.774',-0.610
'0:11.776',-0.540
'0:11.778',-0.580
'0:11.780',-0.620
'0:11.782',-0.745
'0:11.784',-0.850
'0:11.786',-0.855
'0:11.788',-0.825
'0:11.790',-0.750
'0:11.792',-0.680
'0:11.794',-0.585
'0:11.796',-0.540
'0:11.798',-0.615
'0:11.800',-0.670
'0:11.802',-0.750
'0:11.804',-0.810
'0:11.806',-0.840
'0:11.808',-0.795
'0:11.810',-0.735
'0:11.812',-0.690
'0:11.814',-0.630
'0:11.816',-0.590
'0:11.818',-0.630
'0:11.820',-0.665
'0:11.822',-0.725
'0:11.824',-0.780
'0:11.826',-0.835
'0:11.828',-0.750
'0:11.830',-0.705
'0:11.832',-0.650
'0:11.834',-0.570
'0:11.836',-0.545
'0:11.838',-0.590
'0:11.840',-0.640
'0:11.842',-0.705
'0:11.844',-0.835
'0:11.846',-0.875
'0:11.848',-0.670
'0:11.850',-0.690
'0:11.852',-0.570
'0:11.854',-0.560
'0:11.856',-0.510
'0:11.858',-0.560
'0:11.860',-0.540
'0:11.862',-0.660
'0:11.864',-0.750
'0:11.866',-0.785
'0:11.868',-0.735
'0:11.870',-0.645
'0:11.872',-0.550
'0:11.874',-0.480
'0:11.876',-0.455
'0:11.878',-0.520
'0:11.880',-0.505
'0:11.882',-0.650
'0:11.884',-0.710
'0:11.886',-0.735
'0:11.888',-0.700
'0:11.890',-0.640
'0:11.892',-0.530
'0:11.894',-0.410
'0:11.896',-0.400
'0:11.898',-0.470
'0:11.900',-0.460
'0:11.902',-0.560
'0:11.904',-0.615
'0:11.906',-0.630
'0:11.908',-0.555
'0:11.910',-0.515
'0:11.912',-0.430
'0:11.914',-0.355
'0:11.916',-0.315
'0:11.918',-0.360
'0:11.920',-0.390
'0:11.922',-0.500
'0:11.924',-0.530
'0:11.926',-0.545
'0:11.928',-0.450
'0:11.930',-0.420
'0:11.932',-0.335
'0:11.934',-0.255
'0:11.936',-0.260
'0:11.938',-0.335
'0:11.940',-0.405
'0:11.942',-0.465
'0:11.944',-0.530
'0:11.946',-0.535
'0:11.948',-0.470
'0:11.950',-0.420
'0:11.952',-0.315
'0:11.954',-0.310
'0:11.956',-0.310
'0:11.958',-0.320
'0:11.960',-0.375
'0:11.962',-0.545
'0:11.964',-0.575
'0:11.966',-0.595
'0:11.968',-0.560
'0:11.970',-0.525
'0:11.972',-0.400
'0:11.974',-0.365
'0:11.976',-0.390
'0:11.978',-0.455
'0:11.980',-0.535
'0:11.982',-0.650
'0:11.984',-0.725
'0:11.986',-0.700
'0:11.988',-0.685
'0:11.990',-0.645
'0:11.992',-0.500
'0:11.994',-0.450
'0:11.996',-0.430
'0:11.998',-0.525
'0:12.000',-0.615
'0:12.002',-0.730
'0:12.004',-0.805
'0:12.006',-0.780
'0:12.008',-0.695
'0:12.010',-0.670
'0:12.012',-0.605
'0:12.014',-0.555
'0:12.016',-0.555
'0:12.018',-0.655
'0:12.020',-0.720
'0:12.022',-0.800
'0:12.024',-0.775
'0:12.026',-0.785
'0:12.028',-0.740
'0:12.030',-0.660
'0:12.032',-0.650
'0:12.034',-0.560
'0:12.036',-0.525
'0:12.038',-0.620
'0:12.040',-0.730
'0:12.042',-0.865
'0:12.044',-0.840
'0:12.046',-0.770
'0:12.048',-0.755
'0:12.050',-0.695
'0:12.052',-0.610
'0:12.054',-0.550
'0:12.056',-0.590
'0:12.058',-0.640
'0:12.060',-0.745
'0:12.062',-0.820
'0:12.064',-0.860
'0:12.066',-0.810
'0:12.068',-0.775
'0:12.070',-0.675
'0:12.072',-0.610
'0:12.074',-0.570
'0:12.076',-0.600
'0:12.078',-0.650
'0:12.080',-0.740
'0:12.082',-0.795
'0:12.084',-0.845
'0:12.086',-0.780
'0:12.088',-0.750
'0:12.090',-0.725
'0:12.092',-0.605
'0:12.094',-0.590
'0:12.096',-0.600
'0:12.098',-0.670
'0:12.100',-0.725
'0:12.102',-0.760
'0:12.104',-0.805
'0:12.106',-0.800
'0:12.108',-0.715
'0:12.110',-0.630
'0:12.112',-0.600
'0:12.114',-0.590
'0:12.116',-0.610
'0:12.118',-0.655
'0:12.120',-0.725
'0:12.122',-0.820
'0:12.124',-0.825
'0:12.126',-0.785
'0:12.128',-0.750
'0:12.130',-0.745
'0:12.132',-0.560
'0:12.134',-0.555
'0:12.136',-0.650
'0:12.138',-0.660
'0:12.140',-0.720
'0:12.142',-0.805
'0:12.144',-0.840
'0:12.146',-0.845
'0:12.148',-0.785
'0:12.150',-0.655
'0:12.152',-0.555
'0:12.154',-0.560
'0:12.156',-0.645
'0:12.158',-0.660
'0:12.160',-0.760
'0:12.162',-0.875
'0:12.164',-0.845
'0:12.166',-0.845
'0:12.168',-0.780
'0:12.170',-0.640
'0:12.172',-0.585
'0:12.174',-0.595
'0:12.176',-0.670
'0:12.178',-0.695
'0:12.180',-0.775
'0:12.182',-0.825
'0:12.184',-0.855
'0:12.186',-0.795
'0:12.188',-0.770
'0:12.190',-0.690
'0:12.192',-0.585
'0:12.194',-0.585
'0:12.196',-0.610
'0:12.198',-0.710
'0:12.200',-0.810
'0:12.202',-0.880
'0:12.204',-0.850
'0:12.206',-0.805
'0:12.208',-0.770
'0:12.210',-0.695
'0:12.212',-0.605
'0:12.214',-0.600
'0:12.216',-0.650
'0:12.218',-0.730
'0:12.220',-0.795
'0:12.222',-0.845
'0:12.224',-0.875
'0:12.226',-0.835
'0:12.228',-0.790
'0:12.230',-0.705
'0:12.232',-0.615
'0:12.234',-0.600
'0:12.236',-0.695
'0:12.238',-0.695
'0:12.240',-0.770
'0:12.242',-0.860
'0:12.244',-0.885
'0:12.246',-0.845
'0:12.248',-0.765
'0:12.250',-0.650
'0:12.252',-0.610
'0:12.254',-0.655
'0:12.256',-0.695
'0:12.258',-0.745
'0:12.260',-0.845
'0:12.262',-0.895
'0:12.264',-0.850
'0:12.266',-0.790
'0:12.268',-0.775
'0:12.270',-0.630
'0:12.272',-0.630
'0:12.274',-0.575
'0:12.276',-0.745
'0:12.278',-0.755
'0:12.280',-0.785
'0:12.282',-0.880
'0:12.284',-0.865
'0:12.286',-0.815
'0:12.288',-0.760
'0:12.290',-0.655
'0:12.292',-0.610
'0:12.294',-0.635
'0:12.296',-0.680
'0:12.298',-0.770
'0:12.300',-0.835
'0:12.302',-0.870
'0:12.304',-0.850
'0:12.306',-0.805
'0:12.308',-0.740
'0:12.310',-0.680
'0:12.312',-0.625
'0:12.314',-0.665
'0:12.316',-0.700
'0:12.318',-0.750
'0:12.320',-0.815
'0:12.322',-0.890
'0:12.324',-0.865
'0:12.326',-0.855
'0:12.328',-0.770
'0:12.330',-0.625
'0:12.332',-0.630
'0:12.334',-0.690
'0:12.336',-0.665
'0:12.338',-0.715
'0:12.340',-0.875
'0:12.342',-0.855
'0:12.344',-0.840
'0:12.346',-0.825
'0:12.348',-0.730
'0:12.350',-0.660
'0:12.352',-0.605
'0:12.354',-0.665
'0:12.356',-0.695
'0:12.358',-0.800
'0:12.360',-0.875
'0:12.362',-0.915
'0:12.364',-0.890
'0:12.366',-0.865
'0:12.368',-0.745
'0:12.370',-0.600
'0:12.372',-0.585
'0:12.374',-0.650
'0:12.376',-0.670
'0:12.378',-0.760
'0:12.380',-0.870
'0:12.382',-0.880
'0:12.384',-0.850
'0:12.386',-0.815
'0:12.388',-0.725
'0:12.390',-0.620
'0:12.392',-0.610
'0:12.394',-0.705
'0:12.396',-0.725
'0:12.398',-0.825
'0:12.400',-0.805
'0:12.402',-0.880
'0:12.404',-0.855
'0:12.406',-0.790
'0:12.408',-0.735
'0:12.410',-0.670
'0:12.412',-0.605
'0:12.414',-0.635
'0:12.416',-0.715
'0:12.418',-0.775
'0:12.420',-0.855
'0:12.422',-0.925
'0:12.424',-0.900
'0:12.426',-0.810
'0:12.428',-0.705
'0:12.430',-0.605
'0:12.432',-0.620
'0:12.434',-0.700
'0:12.436',-0.765
'0:12.438',-0.750
'0:12.440',-0.840
'0:12.442',-0.940
'0:12.444',-0.885
'0:12.446',-0.775
'0:12.448',-0.675
'0:12.450',-0.640
'0:12.452',-0.615
'0:12.454',-0.650
'0:12.456',-0.700
'0:12.458',-0.820
'0:12.460',-0.865
'0:12.462',-0.890
'0:12.464',-0.845
'0:12.466',-0.790
'0:12.468',-0.725
'0:12.470',-0.650
'0:12.472',-0.625
'0:12.474',-0.715
'0:12.476',-0.710
'0:12.478',-0.770
'0:12.480',-0.905
'0:12.482',-0.825
'0:12.484',-0.815
'0:12.486',-0.785
'0:12.488',-0.725
'0:12.490',-0.655
'0:12.492',-0.595
'0:12.494',-0.665
'0:12.496',-0.745
'0:12.498',-0.860
'0:12.500',-0.880
'0:12.502',-0.825
'0:12.504',-0.795
'0:12.506',-0.790
'0:12.508',-0.650
'0:12.510',-0.620
'0:12.512',-0.595
'0:12.514',-0.655
'0:12.516',-0.715
'0:12.518',-0.800
'0:12.520',-0.850
'0:12.522',-0.880
'0:12.524',-0.850
'0:12.526',-0.750
'0:12.528',-0.650
'0:12.530',-0.535
'0:12.532',-0.510
'0:12.534',-0.610
'0:12.536',-0.615
'0:12.538',-0.785
'0:12.540',-0.840
'0:12.542',-0.770
'0:12.544',-0.775
'0:12.546',-0.700
'0:12.548',-0.580
'0:12.550',-0.535
'0:12.552',-0.535
'0:12.554',-0.590
'0:12.556',-0.705
'0:12.558',-0.795
'0:12.560',-0.805
'0:12.562',-0.825
'0:12.564',-0.780
'0:12.566',-0.720
'0:12.568',-0.630
'0:12.570',-0.595
'0:12.572',-0.640
'0:12.574',-0.670
'0:12.576',-0.750
'0:12.578',-0.845
'0:12.580',-0.820
'0:12.582',-0.890
'0:12.584',-0.815
'0:12.586',-0.735
'0:12.588',-0.685
'0:12.590',-0.675
'0:12.592',-0.635
'0:12.594',-0.735
'0:12.596',-0.735
'0:12.598',-0.870
'0:12.600',-0.925
'0:12.602',-0.860
'0:12.604',-0.820
'0:12.606',-0.740
'0:12.608',-0.700
'0:12.610',-0.710
'0:12.612',-0.635
'0:12.614',-0.675
'0:12.616',-0.745
'0:12.618',-0.835
'0:12.620',-0.895
'0:12.622',-0.870
'0:12.624',-0.835
'0:12.626',-0.775
'0:12.628',-0.645
'0:12.630',-0.600
'0:12.632',-0.675
'0:12.634',-0.695
'0:12.636',-0.785
'0:12.638',-0.870
'0:12.640',-0.885
'0:12.642',-0.855
'0:12.644',-0.830
'0:12.646',-0.715
'0:12.648',-0.635
'0:12.650',-0.645
'0:12.652',-0.700
'0:12.654',-0.735
'0:12.656',-0.780
'0:12.658',-0.890
'0:12.660',-0.935
'0:12.662',-0.895
'0:12.664',-0.815
'0:12.666',-0.720
'0:12.668',-0.635
'0:12.670',-0.655
'0:12.672',-0.690
'0:12.674',-0.715
'0:12.676',-0.795
'0:12.678',-0.815
'0:12.680',-0.805
'0:12.682',-0.695
'0:12.684',-0.570
'0:12.686',-0.425
'0:12.688',-0.325
'0:12.690',-0.210
'0:12.692',-0.220
'0:12.694',-0.185
'0:12.696',-0.270
'0:12.698',-0.365
'0:12.700',-0.415
'0:12.702',-0.490
'0:12.704',-0.515
'0:12.706',-0.500
'0:12.708',-0.515
'0:12.710',-0.565
'0:12.712',-0.660
'0:12.714',-0.805
'0:12.716',-0.940
'0:12.718',-1.050
'0:12.720',-1.075
'0:12.722',-1.050
'0:12.724',-0.995
'0:12.726',-0.890
'0:12.728',-0.845
'0:12.730',-0.800
'0:12.732',-0.775
'0:12.734',-0.815
'0:12.736',-0.925
'0:12.738',-0.955
'0:12.740',-0.915
'0:12.742',-0.895
'0:12.744',-0.780
'0:12.746',-0.690
'0:12.748',-0.660
'0:12.750',-0.650
'0:12.752',-0.710
'0:12.754',-0.735
'0:12.756',-0.850
'0:12.758',-0.865
'0:12.760',-0.800
'0:12.762',-0.840
'0:12.764',-0.790
'0:12.766',-0.680
'0:12.768',-0.625
'0:12.770',-0.620
'0:12.772',-0.655
'0:12.774',-0.695
'0:12.776',-0.795
'0:12.778',-0.845
'0:12.780',-0.840
'0:12.782',-0.825
'0:12.784',-0.790
'0:12.786',-0.655
'0:12.788',-0.655
'0:12.790',-0.585
'0:12.792',-0.655
'0:12.794',-0.685
'0:12.796',-0.795
'0:12.798',-0.830
'0:12.800',-0.885
'0:12.802',-0.830
'0:12.804',-0.755
'0:12.806',-0.635
'0:12.808',-0.585
'0:12.810',-0.610
'0:12.812',-0.650
'0:12.814',-0.695
'0:12.816',-0.770
'0:12.818',-0.860
'0:12.820',-0.850
'0:12.822',-0.800
'0:12.824',-0.745
'0:12.826',-0.605
'0:12.828',-0.520
'0:12.830',-0.590
'0:12.832',-0.580
'0:12.834',-0.690
'0:12.836',-0.845
'0:12.838',-0.910
'0:12.840',-0.870
'0:12.842',-0.690
'0:12.844',-0.705
'0:12.846',-0.585
'0:12.848',-0.515
'0:12.850',-0.555
'0:12.852',-0.605
'0:12.854',-0.660
'0:12.856',-0.735
'0:12.858',-0.825
'0:12.860',-0.780
'0:12.862',-0.730
'0:12.864',-0.645
'0:12.866',-0.585
'0:12.868',-0.520
'0:12.870',-0.545
'0:12.872',-0.590
'0:12.874',-0.680
'0:12.876',-0.720
'0:12.878',-0.770
'0:12.880',-0.730
'0:12.882',-0.650
'0:12.884',-0.580
'0:12.886',-0.505
'0:12.888',-0.495
'0:12.890',-0.460
'0:12.892',-0.510
'0:12.894',-0.570
'0:12.896',-0.695
'0:12.898',-0.700
'0:12.900',-0.660
'0:12.902',-0.605
'0:12.904',-0.560
'0:12.906',-0.375
'0:12.908',-0.410
'0:12.910',-0.410
'0:12.912',-0.390
'0:12.914',-0.525
'0:12.916',-0.615
'0:12.918',-0.615
'0:12.920',-0.570
'0:12.922',-0.500
'0:12.924',-0.405
'0:12.926',-0.325
'0:12.928',-0.305
'0:12.930',-0.315
'0:12.932',-0.325
'0:12.934',-0.425
'0:12.936',-0.545
'0:12.938',-0.585
'0:12.940',-0.555
'0:12.942',-0.500
'0:12.944',-0.360
'0:12.946',-0.215
'0:12.948',-0.230
'0:12.950',-0.310
'0:12.952',-0.340
'0:12.954',-0.440
'0:12.956',-0.530
'0:12.958',-0.560
'0:12.960',-0.475
'0:12.962',-0.515
'0:12.964',-0.385
'0:12.966',-0.345
'0:12.968',-0.315
'0:12.970',-0.345
'0:12.972',-0.415
'0:12.974',-0.505
'0:12.976',-0.605
'0:12.978',-0.675
'0:12.980',-0.635
'0:12.982',-0.575
'0:12.984',-0.470
'0:12.986',-0.410
'0:12.988',-0.410
'0:12.990',-0.480
'0:12.992',-0.520
'0:12.994',-0.675
'0:12.996',-0.755
'0:12.998',-0.765
'0:13.000',-0.730
'0:13.002',-0.690
'0:13.004',-0.615
'0:13.006',-0.515
'0:13.008',-0.470
'0:13.010',-0.535
'0:13.012',-0.590
'0:13.014',-0.695
'0:13.016',-0.830
'0:13.018',-0.870
'0:13.020',-0.800
'0:13.022',-0.760
'0:13.024',-0.605
'0:13.026',-0.565
'0:13.028',-0.590
'0:13.030',-0.645
'0:13.032',-0.645
'0:13.034',-0.760
'0:13.036',-0.865
'0:13.038',-0.860
'0:13.040',-0.790
'0:13.042',-0.720
'0:13.044',-0.610
'0:13.046',-0.550
'0:13.048',-0.555
'0:13.050',-0.620
'0:13.052',-0.675
'0:13.054',-0.750
'0:13.056',-0.845
'0:13.058',-0.850
'0:13.060',-0.795
'0:13.062',-0.695
'0:13.064',-0.660
'0:13.066',-0.585
'0:13.068',-0.580
'0:13.070',-0.615
'0:13.072',-0.690
'0:13.074',-0.785
'0:13.076',-0.835
'0:13.078',-0.820
'0:13.080',-0.780
'0:13.082',-0.765
'0:13.084',-0.640
'0:13.086',-0.585
'0:13.088',-0.565
'0:13.090',-0.630
'0:13.092',-0.700
'0:13.094',-0.760
'0:13.096',-0.815
'0:13.098',-0.810
'0:13.100',-0.750
'0:13.102',-0.695
'0:13.104',-0.600
'0:13.106',-0.560
'0:13.108',-0.575
'0:13.110',-0.625
'0:13.112',-0.700
'0:13.114',-0.795
'0:13.116',-0.855
'0:13.118',-0.770
'0:13.120',-0.715
'0:13.122',-0.720
'0:13.124',-0.660
'0:13.126',-0.535
'0:13.128',-0.545
'0:13.130',-0.605
'0:13.132',-0.720
'0:13.134',-0.775
'0:13.136',-0.835
'0:13.138',-0.835
'0:13.140',-0.785
'0:13.142',-0.690
'0:13.144',-0.565
'0:13.146',-0.520
'0:13.148',-0.595
'0:13.150',-0.615
'0:13.152',-0.670
'0:13.154',-0.785
'0:13.156',-0.810
'0:13.158',-0.800
'0:13.160',-0.765
'0:13.162',-0.675
'0:13.164',-0.610
'0:13.166',-0.575
'0:13.168',-0.615
'0:13.170',-0.635
'0:13.172',-0.705
'0:13.174',-0.795
'0:13.176',-0.875
'0:13.178',-0.845
'0:13.180',-0.775
'0:13.182',-0.650
'0:13.184',-0.630
'0:13.186',-0.575
'0:13.188',-0.620
'0:13.190',-0.645
'0:13.192',-0.725
'0:13.194',-0.770
'0:13.196',-0.825
'0:13.198',-0.765
'0:13.200',-0.760
'0:13.202',-0.675
'0:13.204',-0.645
'0:13.206',-0.610
'0:13.208',-0.585
'0:13.210',-0.660
'0:13.212',-0.760
'0:13.214',-0.830
'0:13.216',-0.820
'0:13.218',-0.795
'0:13.220',-0.770
'0:13.222',-0.680
'0:13.224',-0.600
'0:13.226',-0.555
'0:13.228',-0.640
'0:13.230',-0.680
'0:13.232',-0.750
'0:13.234',-0.865
'0:13.236',-0.840
'0:13.238',-0.775
'0:13.240',-0.795
'0:13.242',-0.700
'0:13.244',-0.610
'0:13.246',-0.570
'0:13.248',-0.635
'0:13.250',-0.695
'0:13.252',-0.800
'0:13.254',-0.840
'0:13.256',-0.870
'0:13.258',-0.775
'0:13.260',-0.780
'0:13.262',-0.645
'0:13.264',-0.620
'0:13.266',-0.535
'0:13.268',-0.665
'0:13.270',-0.645
'0:13.272',-0.765
'0:13.274',-0.870
'0:13.276',-0.875
'0:13.278',-0.815
'0:13.280',-0.780
'0:13.282',-0.680
'0:13.284',-0.635
'0:13.286',-0.535
'0:13.288',-0.620
'0:13.290',-0.685
'0:13.292',-0.780
'0:13.294',-0.860
'0:13.296',-0.850
'0:13.298',-0.805
'0:13.300',-0.765
'0:13.302',-0.695
'0:13.304',-0.650
'0:13.306',-0.555
'0:13.308',-0.635
'0:13.310',-0.715
'0:13.312',-0.800
'0:13.314',-0.875
'0:13.316',-0.865
'0:13.318',-0.790
'0:13.320',-0.745
'0:13.322',-0.670
'0:13.324',-0.600
'0:13.326',-0.605
'0:13.328',-0.630
'0:13.330',-0.670
'0:13.332',-0.810
'0:13.334',-0.875
'0:13.336',-0.845
'0:13.338',-0.835
'0:13.340',-0.775
'0:13.342',-0.675
'0:13.344',-0.600
'0:13.346',-0.600
'0:13.348',-0.680
'0:13.350',-0.740
'0:13.352',-0.805
'0:13.354',-0.780
'0:13.356',-0.850
'0:13.358',-0.840
'0:13.360',-0.750
'0:13.362',-0.630
'0:13.364',-0.585
'0:13.366',-0.595
'0:13.368',-0.645
'0:13.370',-0.710
'0:13.372',-0.810
'0:13.374',-0.825
'0:13.376',-0.840
'0:13.378',-0.810
'0:13.380',-0.745
'0:13.382',-0.615
'0:13.384',-0.585
'0:13.386',-0.615
'0:13.388',-0.650
'0:13.390',-0.705
'0:13.392',-0.825
'0:13.394',-0.865
'0:13.396',-0.840
'0:13.398',-0.820
'0:13.400',-0.715
'0:13.402',-0.655
'0:13.404',-0.625
'0:13.406',-0.610
'0:13.408',-0.645
'0:13.410',-0.670
'0:13.412',-0.850
'0:13.414',-0.870
'0:13.416',-0.860
'0:13.418',-0.800
'0:13.420',-0.720
'0:13.422',-0.630
'0:13.424',-0.630
'0:13.426',-0.675
'0:13.428',-0.575
'0:13.430',-0.715
'0:13.432',-0.835
'0:13.434',-0.895
'0:13.436',-0.845
'0:13.438',-0.795
'0:13.440',-0.725
'0:13.442',-0.620
'0:13.444',-0.535
'0:13.446',-0.600
'0:13.448',-0.640
'0:13.450',-0.740
'0:13.452',-0.805
'0:13.454',-0.795
'0:13.456',-0.825
'0:13.458',-0.750
'0:13.460',-0.700
'0:13.462',-0.570
'0:13.464',-0.510
'0:13.466',-0.530
'0:13.468',-0.585
'0:13.470',-0.655
'0:13.472',-0.755
'0:13.474',-0.825
'0:13.476',-0.735
'0:13.478',-0.725
'0:13.480',-0.685
'0:13.482',-0.535
'0:13.484',-0.520
'0:13.486',-0.595
