'Elapsed time','ECG I'
'hh:mm:ss.mmm','mV'
'0:00.000',-0.835
'0:00.002',-0.905
'0:00.004',-1.025
'0:00.006',-1.025
'0:00.008',-0.960
'0:00.010',-0.885
'0:00.012',-0.840
'0:00.014',-0.740
'0:00.016',-0.680
'0:00.018',-0.760
'0:00.020',-0.950
'0:00.022',-0.920
'0:00.024',-0.995
'0:00.026',-1.045
'0:00.028',-0.930
'0:00.030',-0.940
'0:00.032',-0.730
'0:00.034',-0.685
'0:00.036',-0.815
'0:00.038',-0.805
'0:00.040',-0.915
'0:00.042',-0.940
'0:00.044',-1.080
'0:00.046',-0.955
'0:00.048',-0.980
'0:00.050',-0.990
'0:00.052',-0.835
'0:00.054',-0.655
'0:00.056',-0.695
'0:00.058',-0.870
'0:00.060',-0.935
'0:00.062',-1.000
'0:00.064',-1.045
'0:00.066',-1.015
'0:00.068',-0.950
'0:00.070',-0.905
'0:00.072',-0.750
'0:00.074',-0.785
'0:00.076',-0.810
'0:00.078',-0.785
'0:00.080',-0.915
'0:00.082',-0.970
'0:00.084',-1.045
'0:00.086',-1.055
'0:00.088',-1.045
'0:00.090',-0.945
'0:00.092',-0.800
'0:00.094',-0.750
'0:00.096',-0.770
'0:00.098',-0.835
'0:00.100',-0.975
'0:00.102',-1.065
'0:00.104',-1.105
'0:00.106',-0.995
'0:00.108',-1.005
'0:00.110',-0.895
'0:00.112',-0.915
'0:00.114',-0.860
'0:00.116',-0.865
'0:00.118',-0.810
'0:00.120',-1.010
'0:00.122',-1.105
'0:00.124',-1.145
'0:00.126',-0.975
'0:00.128',-1.000
'0:00.130',-0.895
'0:00.132',-0.830
'0:00.134',-0.835
'0:00.136',-0.895
'0:00.138',-0.870
'0:00.140',-0.945
'0:00.142',-1.105
'0:00.144',-1.000
'0:00.146',-1.095
'0:00.148',-1.095
'0:00.150',-0.985
'0:00.152',-0.795
'0:00.154',-0.750
'0:00.156',-1.010
'0:00.158',-0.990
'0:00.160',-0.885
'0:00.162',-1.055
'0:00.164',-1.060
'0:00.166',-1.075
'0:00.168',-0.975
'0:00.170',-0.860
'0:00.172',-0.980
'0:00.174',-0.895
'0:00.176',-0.890
'0:00.178',-0.930
'0:00.180',-0.990
'0:00.182',-1.110
'0:00.184',-1.185
'0:00.186',-1.130
'0:00.188',-1.140
'0:00.190',-0.920
'0:00.192',-0.730
'0:00.194',-0.790
'0:00.196',-0.840
'0:00.198',-0.940
'0:00.200',-1.045
'0:00.202',-1.065
'0:00.204',-1.100
'0:00.206',-1.075
'0:00.208',-1.045
'0:00.210',-0.895
'0:00.212',-0.885
'0:00.214',-0.870
'0:00.216',-0.895
'0:00.218',-0.960
'0:00.220',-1.010
'0:00.222',-1.080
'0:00.224',-1.100
'0:00.226',-1.035
'0:00.228',-0.985
'0:00.230',-0.915
'0:00.232',-0.920
'0:00.234',-0.870
'0:00.236',-0.825
'0:00.238',-0.990
'0:00.240',-1.125
'0:00.242',-1.065
'0:00.244',-1.140
'0:00.246',-1.110
'0:00.248',-1.010
'0:00.250',-0.905
'0:00.252',-0.810
'0:00.254',-0.795
'0:00.256',-0.855
'0:00.258',-0.890
'0:00.260',-1.040
'0:00.262',-1.135
'0:00.264',-1.020
'0:00.266',-1.040
'0:00.268',-0.970
'0:00.270',-0.905
'0:00.272',-0.795
'0:00.274',-0.750
'0:00.276',-0.885
'0:00.278',-1.045
'0:00.280',-1.050
'0:00.282',-0.985
'0:00.284',-1.120
'0:00.286',-1.095
'0:00.288',-0.975
'0:00.290',-0.905
'0:00.292',-0.885
'0:00.294',-0.840
'0:00.296',-0.925
'0:00.298',-0.965
'0:00.300',-1.045
'0:00.302',-1.205
'0:00.304',-1.185
'0:00.306',-1.090
'0:00.308',-1.030
'0:00.310',-0.875
'0:00.312',-0.865
'0:00.314',-0.930
'0:00.316',-0.945
'0:00.318',-0.965
'0:00.320',-1.105
'0:00.322',-1.210
'0:00.324',-1.155
'0:00.326',-1.105
'0:00.328',-1.055
'0:00.330',-0.970
'0:00.332',-0.870
'0:00.334',-0.960
'0:00.336',-0.940
'0:00.338',-0.995
'0:00.340',-1.155
'0:00.342',-1.155
'0:00.344',-1.200
'0:00.346',-1.185
'0:00.348',-1.015
'0:00.350',-0.920
'0:00.352',-0.865
'0:00.354',-0.975
'0:00.356',-1.000
'0:00.358',-0.985
'0:00.360',-1.175
'0:00.362',-1.215
'0:00.364',-1.135
'0:00.366',-1.070
'0:00.368',-1.050
'0:00.370',-0.895
'0:00.372',-0.930
'0:00.374',-0.950
'0:00.376',-0.970
'0:00.378',-1.055
'0:00.380',-1.120
'0:00.382',-1.130
'0:00.384',-1.240
'0:00.386',-1.165
'0:00.388',-1.020
'0:00.390',-0.910
'0:00.392',-0.995
'0:00.394',-0.915
'0:00.396',-0.920
'0:00.398',-1.055
'0:00.400',-1.180
'0:00.402',-1.100
'0:00.404',-1.015
'0:00.406',-0.910
'0:00.408',-0.740
'0:00.410',-0.620
'0:00.412',-0.590
'0:00.414',-0.625
'0:00.416',-0.650
'0:00.418',-0.795
'0:00.420',-0.995
'0:00.422',-1.115
'0:00.424',-1.075
'0:00.426',-1.010
'0:00.428',-1.055
'0:00.430',-0.950
'0:00.432',-0.990
'0:00.434',-1.085
'0:00.436',-1.145
'0:00.438',-1.275
'0:00.440',-1.360
'0:00.442',-1.410
'0:00.444',-1.355
'0:00.446',-1.275
'0:00.448',-1.155
'0:00.450',-1.055
'0:00.452',-1.040
'0:00.454',-1.045
'0:00.456',-1.085
'0:00.458',-1.145
'0:00.460',-1.265
'0:00.462',-1.195
'0:00.464',-1.210
'0:00.466',-1.145
'0:00.468',-1.085
'0:00.470',-1.025
'0:00.472',-0.910
'0:00.474',-0.945
'0:00.476',-1.085
'0:00.478',-1.095
'0:00.480',-1.215
'0:00.482',-1.155
'0:00.484',-1.190
'0:00.486',-1.190
'0:00.488',-0.995
'0:00.490',-0.945
'0:00.492',-0.935
'0:00.494',-1.080
'0:00.496',-0.895
'0:00.498',-1.015
'0:00.500',-1.305
'0:00.502',-1.145
'0:00.504',-1.205
'0:00.506',-1.095
'0:00.508',-0.985
'0:00.510',-0.950
'0:00.512',-0.930
'0:00.514',-0.930
'0:00.516',-1.015
'0:00.518',-1.125
'0:00.520',-1.170
'0:00.522',-1.165
'0:00.524',-1.190
'0:00.526',-1.030
'0:00.528',-1.005
'0:00.530',-0.835
'0:00.532',-0.920
'0:00.534',-0.985
'0:00.536',-0.980
'0:00.538',-1.120
'0:00.540',-1.125
'0:00.542',-1.225
'0:00.544',-1.180
'0:00.546',-1.110
'0:00.548',-0.975
'0:00.550',-0.900
'0:00.552',-0.945
'0:00.554',-0.910
'0:00.556',-1.010
'0:00.558',-1.130
'0:00.560',-1.195
'0:00.562',-1.235
'0:00.564',-1.170
'0:00.566',-1.035
'0:00.568',-0.890
'0:00.570',-0.870
'0:00.572',-0.870
'0:00.574',-0.975
'0:00.576',-0.915
'0:00.578',-0.995
'0:00.580',-1.155
'0:00.582',-1.190
'0:00.584',-1.155
'0:00.586',-0.995
'0:00.588',-0.890
'0:00.590',-0.835
'0:00.592',-0.890
'0:00.594',-0.955
'0:00.596',-0.885
'0:00.598',-0.995
'0:00.600',-0.985
'0:00.602',-1.065
'0:00.604',-0.995
'0:00.606',-0.905
'0:00.608',-0.905
'0:00.610',-0.730
'0:00.612',-0.730
'0:00.614',-0.795
'0:00.616',-0.850
'0:00.618',-1.055
'0:00.620',-1.045
'0:00.622',-0.860
'0:00.624',-0.950
'0:00.626',-0.865
'0:00.628',-0.705
'0:00.630',-0.695
'0:00.632',-0.790
'0:00.634',-0.740
'0:00.636',-0.890
'0:00.638',-0.995
'0:00.640',-1.000
'0:00.642',-0.955
'0:00.644',-0.975
'0:00.646',-0.810
'0:00.648',-0.740
'0:00.650',-0.815
'0:00.652',-0.830
'0:00.654',-0.905
'0:00.656',-0.905
'0:00.658',-1.015
'0:00.660',-1.035
'0:00.662',-1.095
'0:00.664',-1.035
'0:00.666',-0.875
'0:00.668',-0.960
'0:00.670',-0.860
'0:00.672',-0.805
'0:00.674',-0.940
'0:00.676',-1.050
'0:00.678',-1.085
'0:00.680',-1.140
'0:00.682',-1.155
'0:00.684',-1.120
'0:00.686',-1.005
'0:00.688',-0.945
'0:00.690',-0.905
'0:00.692',-1.045
'0:00.694',-1.040
'0:00.696',-1.060
'0:00.698',-1.105
'0:00.700',-1.225
'0:00.702',-1.220
'0:00.704',-1.290
'0:00.706',-0.980
'0:00.708',-0.960
'0:00.710',-0.940
'0:00.712',-0.960
'0:00.714',-0.950
'0:00.716',-1.125
'0:00.718',-1.270
'0:00.720',-1.310
'0:00.722',-1.210
'0:00.724',-1.210
'0:00.726',-1.130
'0:00.728',-0.990
'0:00.730',-0.930
'0:00.732',-1.020
'0:00.734',-1.155
'0:00.736',-1.085
'0:00.738',-1.200
'0:00.740',-1.195
'0:00.742',-1.120
'0:00.744',-1.140
'0:00.746',-1.120
'0:00.748',-0.995
'0:00.750',-0.970
'0:00.752',-0.950
'0:00.754',-1.060
'0:00.756',-1.170
'0:00.758',-1.260
'0:00.760',-1.230
'0:00.762',-1.205
'0:00.764',-1.150
'0:00.766',-1.090
'0:00.768',-0.985
'0:00.770',-1.005
'0:00.772',-0.960
'0:00.774',-1.065
'0:00.776',-1.175
'0:00.778',-1.215
'0:00.780',-1.285
'0:00.782',-1.130
'0:00.784',-1.115
'0:00.786',-1.060
'0:00.788',-1.010
'0:00.790',-0.980
'0:00.792',-1.000
'0:00.794',-1.030
'0:00.796',-1.145
'0:00.798',-1.285
'0:00.800',-1.250
'0:00.802',-1.180
'0:00.804',-1.200
'0:00.806',-1.030
'0:00.808',-0.975
'0:00.810',-0.940
'0:00.812',-1.055
'0:00.814',-1.005
'0:00.816',-1.210
'0:00.818',-1.295
'0:00.820',-1.270
'0:00.822',-1.255
'0:00.824',-1.170
'0:00.826',-0.980
'0:00.828',-0.980
'0:00.830',-1.015
'0:00.832',-1.055
'0:00.834',-1.065
'0:00.836',-1.240
'0:00.838',-1.305
'0:00.840',-1.285
'0:00.842',-1.200
'0:00.844',-1.150
'0:00.846',-1.070
'0:00.848',-0.955
'0:00.850',-0.950
'0:00.852',-1.035
'0:00.854',-1.200
'0:00.856',-1.250
'0:00.858',-1.225
'0:00.860',-1.265
'0:00.862',-1.195
'0:00.864',-1.195
'0:00.866',-1.085
'0:00.868',-0.980
'0:00.870',-0.940
'0:00.872',-1.005
'0:00.874',-1.215
'0:00.876',-1.195
'0:00.878',-1.235
'0:00.880',-1.340
'0:00.882',-1.230
'0:00.884',-1.160
'0:00.886',-1.035
'0:00.888',-1.050
'0:00.890',-1.100
'0:00.892',-1.095
'0:00.894',-1.130
'0:00.896',-1.230
'0:00.898',-1.355
'0:00.900',-1.320
'0:00.902',-1.250
'0:00.904',-1.120
'0:00.906',-1.100
'0:00.908',-1.075
'0:00.910',-1.125
'0:00.912',-1.125
'0:00.914',-1.135
'0:00.916',-1.250
'0:00.918',-1.365
'0:00.920',-1.195
'0:00.922',-1.250
'0:00.924',-1.170
'0:00.926',-1.025
'0:00.928',-1.155
'0:00.930',-1.110
'0:00.932',-1.035
'0:00.934',-1.225
'0:00.936',-1.260
'0:00.938',-1.245
'0:00.940',-1.420
'0:00.942',-1.325
'0:00.944',-1.070
'0:00.946',-0.995
'0:00.948',-0.940
'0:00.950',-1.040
'0:00.952',-1.080
'0:00.954',-1.270
'0:00.956',-1.350
'0:00.958',-1.355
'0:00.960',-1.295
'0:00.962',-1.330
'0:00.964',-1.105
'0:00.966',-1.100
'0:00.968',-0.990
'0:00.970',-1.150
'0:00.972',-1.065
'0:00.974',-1.210
'0:00.976',-1.300
'0:00.978',-1.330
'0:00.980',-1.265
'0:00.982',-1.290
'0:00.984',-1.175
'0:00.986',-1.135
'0:00.988',-1.060
'0:00.990',-1.000
'0:00.992',-1.145
'0:00.994',-1.350
'0:00.996',-1.300
'0:00.998',-1.320
'0:01.000',-1.375
'0:01.002',-1.245
'0:01.004',-1.165
'0:01.006',-1.005
'0:01.008',-0.995
'0:01.010',-1.110
'0:01.012',-1.130
'0:01.014',-1.265
'0:01.016',-1.290
'0:01.018',-1.385
'0:01.020',-1.370
'0:01.022',-1.245
'0:01.024',-1.135
'0:01.026',-1.115
'0:01.028',-1.120
'0:01.030',-1.115
'0:01.032',-1.040
'0:01.034',-1.260
'0:01.036',-1.350
'0:01.038',-1.420
'0:01.040',-1.245
'0:01.042',-1.155
'0:01.044',-1.140
'0:01.046',-1.080
'0:01.048',-1.045
'0:01.050',-1.055
'0:01.052',-1.125
'0:01.054',-1.265
'0:01.056',-1.245
'0:01.058',-1.295
'0:01.060',-1.315
'0:01.062',-1.165
'0:01.064',-1.070
'0:01.066',-1.045
'0:01.068',-0.970
'0:01.070',-1.025
'0:01.072',-1.030
'0:01.074',-1.220
'0:01.076',-1.320
'0:01.078',-1.290
'0:01.080',-1.265
'0:01.082',-1.230
'0:01.084',-1.035
'0:01.086',-0.995
'0:01.088',-1.045
'0:01.090',-1.030
'0:01.092',-1.140
'0:01.094',-1.290
'0:01.096',-1.430
'0:01.098',-1.415
'0:01.100',-1.310
'0:01.102',-1.210
'0:01.104',-1.095
'0:01.106',-1.075
'0:01.108',-1.100
'0:01.110',-1.130
'0:01.112',-1.215
'0:01.114',-1.275
'0:01.116',-1.340
'0:01.118',-1.395
'0:01.120',-1.255
'0:01.122',-1.165
'0:01.124',-1.125
'0:01.126',-1.180
'0:01.128',-1.080
'0:01.130',-1.110
'0:01.132',-1.190
'0:01.134',-1.200
'0:01.136',-1.425
'0:01.138',-1.405
'0:01.140',-1.220
'0:01.142',-1.175
'0:01.144',-1.155
'0:01.146',-1.075
'0:01.148',-1.175
'0:01.150',-1.185
'0:01.152',-1.125
'0:01.154',-1.345
'0:01.156',-1.310
'0:01.158',-1.380
'0:01.160',-1.360
'0:01.162',-1.305
'0:01.164',-1.120
'0:01.166',-1.125
'0:01.168',-1.120
'0:01.170',-1.180
'0:01.172',-1.275
'0:01.174',-1.330
'0:01.176',-1.370
'0:01.178',-1.310
'0:01.180',-1.345
'0:01.182',-1.245
'0:01.184',-1.240
'0:01.186',-1.130
'0:01.188',-1.175
'0:01.190',-1.330
'0:01.192',-1.280
'0:01.194',-1.265
'0:01.196',-1.340
'0:01.198',-1.380
'0:01.200',-1.305
'0:01.202',-1.200
'0:01.204',-1.025
'0:01.206',-0.955
'0:01.208',-0.905
'0:01.210',-0.920
'0:01.212',-0.955
'0:01.214',-0.955
'0:01.216',-0.875
'0:01.218',-0.850
'0:01.220',-0.785
'0:01.222',-0.635
'0:01.224',-0.750
'0:01.226',-0.725
'0:01.228',-0.785
'0:01.230',-0.995
'0:01.232',-1.060
'0:01.234',-1.325
'0:01.236',-1.435
'0:01.238',-1.485
'0:01.240',-1.415
'0:01.242',-1.410
'0:01.244',-1.390
'0:01.246',-1.375
'0:01.248',-1.345
'0:01.250',-1.470
'0:01.252',-1.620
'0:01.254',-1.585
'0:01.256',-1.555
'0:01.258',-1.475
'0:01.260',-1.360
'0:01.262',-1.230
'0:01.264',-1.275
'0:01.266',-1.230
'0:01.268',-1.200
'0:01.270',-1.200
'0:01.272',-1.285
'0:01.274',-1.415
'0:01.276',-1.385
'0:01.278',-1.345
'0:01.280',-1.255
'0:01.282',-1.185
'0:01.284',-1.120
'0:01.286',-1.050
'0:01.288',-1.160
'0:01.290',-1.160
'0:01.292',-1.205
'0:01.294',-1.380
'0:01.296',-1.340
'0:01.298',-1.330
'0:01.300',-1.350
'0:01.302',-1.170
'0:01.304',-1.045
'0:01.306',-1.080
'0:01.308',-1.085
'0:01.310',-1.260
'0:01.312',-1.315
'0:01.314',-1.345
'0:01.316',-1.345
'0:01.318',-1.390
'0:01.320',-1.300
'0:01.322',-1.190
'0:01.324',-1.080
'0:01.326',-1.065
'0:01.328',-1.100
'0:01.330',-1.160
'0:01.332',-1.270
'0:01.334',-1.300
'0:01.336',-1.310
'0:01.338',-1.285
'0:01.340',-1.325
'0:01.342',-1.110
'0:01.344',-1.050
'0:01.346',-1.110
'0:01.348',-1.205
'0:01.350',-1.165
'0:01.352',-1.245
'0:01.354',-1.255
'0:01.356',-1.225
'0:01.358',-1.275
'0:01.360',-1.280
'0:01.362',-1.125
'0:01.364',-1.025
'0:01.366',-0.945
'0:01.368',-1.100
'0:01.370',-1.095
'0:01.372',-1.050
'0:01.374',-1.240
'0:01.376',-1.300
'0:01.378',-1.335
'0:01.380',-1.345
'0:01.382',-1.020
'0:01.384',-0.960
'0:01.386',-1.085
'0:01.388',-1.005
'0:01.390',-1.035
'0:01.392',-1.190
'0:01.394',-1.250
'0:01.396',-1.165
'0:01.398',-1.040
'0:01.400',-0.990
'0:01.402',-0.960
'0:01.404',-0.975
'0:01.406',-0.935
'0:01.408',-0.980
'0:01.410',-1.000
'0:01.412',-1.015
'0:01.414',-1.000
'0:01.416',-1.045
'0:01.418',-1.050
'0:01.420',-1.010
'0:01.422',-0.880
'0:01.424',-0.760
'0:01.426',-0.710
'0:01.428',-0.680
'0:01.430',-0.935
'0:01.432',-1.035
'0:01.434',-1.005
'0:01.436',-0.935
'0:01.438',-0.925
'0:01.440',-0.820
'0:01.442',-0.720
'0:01.444',-0.720
'0:01.446',-0.810
'0:01.448',-0.730
'0:01.450',-0.850
'0:01.452',-0.960
'0:01.454',-1.015
'0:01.456',-1.105
'0:01.458',-0.995
'0:01.460',-0.965
'0:01.462',-0.905
'0:01.464',-0.780
'0:01.466',-0.800
'0:01.468',-0.850
'0:01.470',-1.025
'0:01.472',-1.085
'0:01.474',-1.080
'0:01.476',-1.120
'0:01.478',-1.090
'0:01.480',-1.105
'0:01.482',-0.950
'0:01.484',-0.960
'0:01.486',-0.995
'0:01.488',-1.025
'0:01.490',-1.050
'0:01.492',-1.275
'0:01.494',-1.335
'0:01.496',-1.285
'0:01.498',-1.230
'0:01.500',-1.125
'0:01.502',-1.090
'0:01.504',-1.035
'0:01.506',-1.105
'0:01.508',-1.050
'0:01.510',-1.225
'0:01.512',-1.320
'0:01.514',-1.335
'0:01.516',-1.335
'0:01.518',-1.315
'0:01.520',-1.225
'0:01.522',-1.135
'0:01.524',-1.090
'0:01.526',-1.055
'0:01.528',-1.110
'0:01.530',-1.230
'0:01.532',-1.370
'0:01.534',-1.365
'0:01.536',-1.340
'0:01.538',-1.285
'0:01.540',-1.190
'0:01.542',-1.085
'0:01.544',-1.135
'0:01.546',-1.140
'0:01.548',-1.180
'0:01.550',-1.315
'0:01.552',-1.415
'0:01.554',-1.330
'0:01.556',-1.360
'0:01.558',-1.315
'0:01.560',-1.205
'0:01.562',-1.085
'0:01.564',-1.115
'0:01.566',-1.170
'0:01.568',-1.225
'0:01.570',-1.280
'0:01.572',-1.385
'0:01.574',-1.420
'0:01.576',-1.330
'0:01.578',-1.260
'0:01.580',-1.185
'0:01.582',-1.190
'0:01.584',-1.180
'0:01.586',-1.055
'0:01.588',-1.145
'0:01.590',-1.235
'0:01.592',-1.385
'0:01.594',-1.395
'0:01.596',-1.330
'0:01.598',-1.220
'0:01.600',-1.130
'0:01.602',-1.085
'0:01.604',-1.095
'0:01.606',-1.160
'0:01.608',-1.325
'0:01.610',-1.415
'0:01.612',-1.435
'0:01.614',-1.470
'0:01.616',-1.360
'0:01.618',-1.315
'0:01.620',-1.175
'0:01.622',-1.130
'0:01.624',-1.130
'0:01.626',-1.165
'0:01.628',-1.185
'0:01.630',-1.310
'0:01.632',-1.370
'0:01.634',-1.480
'0:01.636',-1.360
'0:01.638',-1.230
'0:01.640',-1.210
'0:01.642',-1.120
'0:01.644',-1.150
'0:01.646',-1.140
'0:01.648',-1.255
'0:01.650',-1.365
'0:01.652',-1.525
'0:01.654',-1.395
'0:01.656',-1.390
'0:01.658',-1.355
'0:01.660',-1.150
'0:01.662',-1.110
'0:01.664',-1.080
'0:01.666',-1.290
'0:01.668',-1.375
'0:01.670',-1.365
'0:01.672',-1.425
'0:01.674',-1.415
'0:01.676',-1.395
'0:01.678',-1.280
'0:01.680',-1.230
'0:01.682',-1.065
'0:01.684',-1.210
'0:01.686',-1.150
'0:01.688',-1.205
'0:01.690',-1.400
'0:01.692',-1.490
'0:01.694',-1.465
'0:01.696',-1.355
'0:01.698',-1.390
'0:01.700',-1.205
'0:01.702',-1.160
'0:01.704',-1.150
'0:01.706',-1.230
'0:01.708',-1.280
'0:01.710',-1.415
'0:01.712',-1.460
'0:01.714',-1.405
'0:01.716',-1.305
'0:01.718',-1.355
'0:01.720',-1.245
'0:01.722',-1.170
'0:01.724',-1.120
'0:01.726',-1.225
'0:01.728',-1.310
'0:01.730',-1.485
'0:01.732',-1.525
'0:01.734',-1.510
'0:01.736',-1.420
'0:01.738',-1.290
'0:01.740',-1.200
'0:01.742',-1.215
'0:01.744',-1.215
'0:01.746',-1.295
'0:01.748',-1.320
'0:01.750',-1.345
'0:01.752',-1.440
'0:01.754',-1.400
'0:01.756',-1.460
'0:01.758',-1.395
'0:01.760',-1.210
'0:01.762',-1.125
'0:01.764',-1.175
'0:01.766',-1.160
'0:01.768',-1.225
'0:01.770',-1.385
'0:01.772',-1.440
'0:01.774',-1.435
'0:01.776',-1.365
'0:01.778',-1.305
'0:01.780',-1.265
'0:01.782',-1.175
'0:01.784',-1.150
'0:01.786',-1.230
'0:01.788',-1.370
'0:01.790',-1.375
'0:01.792',-1.480
'0:01.794',-1.350
'0:01.796',-1.495
'0:01.798',-1.340
'0:01.800',-1.135
'0:01.802',-1.135
'0:01.804',-1.195
'0:01.806',-1.230
'0:01.808',-1.350
'0:01.810',-1.365
'0:01.812',-1.495
'0:01.814',-1.460
'0:01.816',-1.380
'0:01.818',-1.310
'0:01.820',-1.210
'0:01.822',-1.200
'0:01.824',-1.220
'0:01.826',-1.225
'0:01.828',-1.375
'0:01.830',-1.400
'0:01.832',-1.540
'0:01.834',-1.410
'0:01.836',-1.395
'0:01.838',-1.265
'0:01.840',-1.200
'0:01.842',-1.175
'0:01.844',-1.205
'0:01.846',-1.260
'0:01.848',-1.320
'0:01.850',-1.435
'0:01.852',-1.425
'0:01.854',-1.385
'0:01.856',-1.355
'0:01.858',-1.265
'0:01.860',-1.145
'0:01.862',-1.150
'0:01.864',-1.205
'0:01.866',-1.290
'0:01.868',-1.365
'0:01.870',-1.415
'0:01.872',-1.425
'0:01.874',-1.400
'0:01.876',-1.320
'0:01.878',-1.260
'0:01.880',-1.170
'0:01.882',-1.220
'0:01.884',-1.245
'0:01.886',-1.235
'0:01.888',-1.345
'0:01.890',-1.480
'0:01.892',-1.445
'0:01.894',-1.330
'0:01.896',-1.305
'0:01.898',-1.365
'0:01.900',-1.200
'0:01.902',-1.230
'0:01.904',-1.210
'0:01.906',-1.240
'0:01.908',-1.365
'0:01.910',-1.400
'0:01.912',-1.455
'0:01.914',-1.440
'0:01.916',-1.380
'0:01.918',-1.180
'0:01.920',-1.160
'0:01.922',-1.185
'0:01.924',-1.225
'0:01.926',-1.140
'0:01.928',-1.385
'0:01.930',-1.390
'0:01.932',-1.380
'0:01.934',-1.350
'0:01.936',-1.275
'0:01.938',-1.210
'0:01.940',-1.070
'0:01.942',-1.035
'0:01.944',-1.115
'0:01.946',-1.185
'0:01.948',-1.270
'0:01.950',-1.470
'0:01.952',-1.415
'0:01.954',-1.305
'0:01.956',-1.200
'0:01.958',-1.180
'0:01.960',-1.170
'0:01.962',-1.055
'0:01.964',-1.115
'0:01.966',-1.165
'0:01.968',-1.300
'0:01.970',-1.360
'0:01.972',-1.385
'0:01.974',-1.355
'0:01.976',-1.350
'0:01.978',-1.295
'0:01.980',-1.180
'0:01.982',-1.115
'0:01.984',-1.190
'0:01.986',-1.285
'0:01.988',-1.395
'0:01.990',-1.400
'0:01.992',-1.515
'0:01.994',-1.485
'0:01.996',-1.330
'0:01.998',-1.140
'0:02.000',-1.095
'0:02.002',-1.180
'0:02.004',-1.230
'0:02.006',-1.325
'0:02.008',-1.430
'0:02.010',-1.465
'0:02.012',-1.370
'0:02.014',-1.410
'0:02.016',-1.395
'0:02.018',-1.235
'0:02.020',-1.070
'0:02.022',-1.115
'0:02.024',-1.210
'0:02.026',-1.400
'0:02.028',-1.425
'0:02.030',-1.440
'0:02.032',-1.470
'0:02.034',-1.415
'0:02.036',-1.330
'0:02.038',-1.215
'0:02.040',-1.175
'0:02.042',-1.215
'0:02.044',-1.210
'0:02.046',-1.260
'0:02.048',-1.390
'0:02.050',-1.505
'0:02.052',-1.445
'0:02.054',-1.350
'0:02.056',-1.350
'0:02.058',-1.255
'0:02.060',-1.140
'0:02.062',-1.140
'0:02.064',-1.285
'0:02.066',-1.365
'0:02.068',-1.345
'0:02.070',-1.490
'0:02.072',-1.455
'0:02.074',-1.405
'0:02.076',-1.265
'0:02.078',-1.135
'0:02.080',-1.120
'0:02.082',-1.100
'0:02.084',-1.075
'0:02.086',-1.075
'0:02.088',-1.080
'0:02.090',-1.070
'0:02.092',-1.175
'0:02.094',-1.000
'0:02.096',-0.850
'0:02.098',-0.755
'0:02.100',-0.805
'0:02.102',-0.865
'0:02.104',-1.055
'0:02.106',-1.255
'0:02.108',-1.425
'0:02.110',-1.490
'0:02.112',-1.510
'0:02.114',-1.610
'0:02.116',-1.455
'0:02.118',-1.425
'0:02.120',-1.445
'0:02.122',-1.500
'0:02.124',-1.475
'0:02.126',-1.560
'0:02.128',-1.610
'0:02.130',-1.585
'0:02.132',-1.640
'0:02.134',-1.635
'0:02.136',-1.305
'0:02.138',-1.125
'0:02.140',-1.245
'0:02.142',-1.340
'0:02.144',-1.230
'0:02.146',-1.330
'0:02.148',-1.420
'0:02.150',-1.415
'0:02.152',-1.425
'0:02.154',-1.375
'0:02.156',-1.280
'0:02.158',-1.165
'0:02.160',-1.150
'0:02.162',-1.230
'0:02.164',-1.195
'0:02.166',-1.305
'0:02.168',-1.465
'0:02.170',-1.460
'0:02.172',-1.385
'0:02.174',-1.320
'0:02.176',-1.285
'0:02.178',-1.130
'0:02.180',-1.225
'0:02.182',-1.175
'0:02.184',-1.240
'0:02.186',-1.335
'0:02.188',-1.445
'0:02.190',-1.510
'0:02.192',-1.420
'0:02.194',-1.385
'0:02.196',-1.195
'0:02.198',-1.165
'0:02.200',-1.125
'0:02.202',-1.190
'0:02.204',-1.255
'0:02.206',-1.295
'0:02.208',-1.485
'0:02.210',-1.425
'0:02.212',-1.405
'0:02.214',-1.315
'0:02.216',-1.180
'0:02.218',-1.135
'0:02.220',-1.055
'0:02.222',-1.230
'0:02.224',-1.215
'0:02.226',-1.300
'0:02.228',-1.265
'0:02.230',-1.445
'0:02.232',-1.355
'0:02.234',-1.330
'0:02.236',-1.215
'0:02.238',-1.095
'0:02.240',-1.100
'0:02.242',-1.160
'0:02.244',-1.170
'0:02.246',-1.365
'0:02.248',-1.390
'0:02.250',-1.400
'0:02.252',-1.300
'0:02.254',-1.125
'0:02.256',-1.140
'0:02.258',-1.130
'0:02.260',-1.090
'0:02.262',-1.125
'0:02.264',-1.080
'0:02.266',-1.315
'0:02.268',-1.315
'0:02.270',-1.235
'0:02.272',-1.250
'0:02.274',-1.180
'0:02.276',-1.070
'0:02.278',-1.055
'0:02.280',-1.070
'0:02.282',-1.070
'0:02.284',-1.090
'0:02.286',-1.120
'0:02.288',-1.155
'0:02.290',-1.115
'0:02.292',-1.120
'0:02.294',-1.160
'0:02.296',-0.965
'0:02.298',-0.910
'0:02.300',-0.900
'0:02.302',-0.995
'0:02.304',-1.070
'0:02.306',-1.180
'0:02.308',-1.155
'0:02.310',-1.100
'0:02.312',-1.035
'0:02.314',-1.105
'0:02.316',-0.965
'0:02.318',-0.910
'0:02.320',-0.735
'0:02.322',-0.850
'0:02.324',-1.005
'0:02.326',-1.165
'0:02.328',-1.160
'0:02.330',-1.220
'0:02.332',-1.160
'0:02.334',-1.000
'0:02.336',-1.000
'0:02.338',-0.970
'0:02.340',-1.000
'0:02.342',-0.985
'0:02.344',-1.130
'0:02.346',-1.260
'0:02.348',-1.255
'0:02.350',-1.280
'0:02.352',-1.265
'0:02.354',-1.080
'0:02.356',-1.095
'0:02.358',-1.045
'0:02.360',-1.050
'0:02.362',-1.050
'0:02.364',-1.160
'0:02.366',-1.225
'0:02.368',-1.440
'0:02.370',-1.315
'0:02.372',-1.285
'0:02.374',-1.235
'0:02.376',-1.130
'0:02.378',-1.110
'0:02.380',-1.195
'0:02.382',-1.195
'0:02.384',-1.305
'0:02.386',-1.405
'0:02.388',-1.420
'0:02.390',-1.405
'0:02.392',-1.270
'0:02.394',-1.205
'0:02.396',-1.190
'0:02.398',-1.165
'0:02.400',-1.295
'0:02.402',-1.255
'0:02.404',-1.260
'0:02.406',-1.450
'0:02.408',-1.480
'0:02.410',-1.430
'0:02.412',-1.390
'0:02.414',-1.315
'0:02.416',-1.250
'0:02.418',-1.080
'0:02.420',-1.155
'0:02.422',-1.355
'0:02.424',-1.330
'0:02.426',-1.380
'0:02.428',-1.455
'0:02.430',-1.420
'0:02.432',-1.375
'0:02.434',-1.345
'0:02.436',-1.235
'0:02.438',-1.140
'0:02.440',-1.190
'0:02.442',-1.270
'0:02.444',-1.365
'0:02.446',-1.375
'0:02.448',-1.480
'0:02.450',-1.490
'0:02.452',-1.395
'0:02.454',-1.280
'0:02.456',-1.110
'0:02.458',-1.180
'0:02.460',-1.280
'0:02.462',-1.240
'0:02.464',-1.350
'0:02.466',-1.470
'0:02.468',-1.450
'0:02.470',-1.355
'0:02.472',-1.345
'0:02.474',-1.270
'0:02.476',-1.120
'0:02.478',-1.165
'0:02.480',-1.240
'0:02.482',-1.230
'0:02.484',-1.460
'0:02.486',-1.470
'0:02.488',-1.400
'0:02.490',-1.350
'0:02.492',-1.425
'0:02.494',-1.300
'0:02.496',-1.145
'0:02.498',-1.195
'0:02.500',-1.240
'0:02.502',-1.280
'0:02.504',-1.380
'0:02.506',-1.500
'0:02.508',-1.505
'0:02.510',-1.515
'0:02.512',-1.300
'0:02.514',-1.245
'0:02.516',-1.180
'0:02.518',-1.155
'0:02.520',-1.265
'0:02.522',-1.330
'0:02.524',-1.385
'0:02.526',-1.595
'0:02.528',-1.475
'0:02.530',-1.435
'0:02.532',-1.355
'0:02.534',-1.275
'0:02.536',-1.170
'0:02.538',-1.170
'0:02.540',-1.210
'0:02.542',-1.320
'0:02.544',-1.415
'0:02.546',-1.525
'0:02.548',-1.550
'0:02.550',-1.415
'0:02.552',-1.435
'0:02.554',-1.255
'0:02.556',-1.195
'0:02.558',-1.200
'0:02.560',-1.250
'0:02.562',-1.260
'0:02.564',-1.385
'0:02.566',-1.575
'0:02.568',-1.470
'0:02.570',-1.480
'0:02.572',-1.390
'0:02.574',-1.280
'0:02.576',-1.280
'0:02.578',-1.280
'0:02.580',-1.355
'0:02.582',-1.400
'0:02.584',-1.395
'0:02.586',-1.530
'0:02.588',-1.440
'0:02.590',-1.435
'0:02.592',-1.430
'0:02.594',-1.255
'0:02.596',-1.240
'0:02.598',-1.205
'0:02.600',-1.325
'0:02.602',-1.340
'0:02.604',-1.555
'0:02.606',-1.475
'0:02.608',-1.515
'0:02.610',-1.460
'0:02.612',-1.385
'0:02.614',-1.375
'0:02.616',-1.235
'0:02.618',-1.260
'0:02.620',-1.305
'0:02.622',-1.330
'0:02.624',-1.465
'0:02.626',-1.535
'0:02.628',-1.540
'0:02.630',-1.470
'0:02.632',-1.420
'0:02.634',-1.300
'0:02.636',-1.245
'0:02.638',-1.220
'0:02.640',-1.155
'0:02.642',-1.230
'0:02.644',-1.555
'0:02.646',-1.630
'0:02.648',-1.580
'0:02.650',-1.445
'0:02.652',-1.490
'0:02.654',-1.295
'0:02.656',-1.290
'0:02.658',-1.220
'0:02.660',-1.295
'0:02.662',-1.405
'0:02.664',-1.480
'0:02.666',-1.570
'0:02.668',-1.525
'0:02.670',-1.460
'0:02.672',-1.380
'0:02.674',-1.275
'0:02.676',-1.175
'0:02.678',-1.350
'0:02.680',-1.265
'0:02.682',-1.450
'0:02.684',-1.515
'0:02.686',-1.570
'0:02.688',-1.520
'0:02.690',-1.465
'0:02.692',-1.365
'0:02.694',-1.280
'0:02.696',-1.215
'0:02.698',-1.250
'0:02.700',-1.275
'0:02.702',-1.395
'0:02.704',-1.550
'0:02.706',-1.535
'0:02.708',-1.465
'0:02.710',-1.460
'0:02.712',-1.315
'0:02.714',-1.295
'0:02.716',-1.200
'0:02.718',-1.245
'0:02.720',-1.285
'0:02.722',-1.410
'0:02.724',-1.450
'0:02.726',-1.395
'0:02.728',-1.465
'0:02.730',-1.420
'0:02.732',-1.275
'0:02.734',-1.200
'0:02.736',-1.160
'0:02.738',-1.295
'0:02.740',-1.300
'0:02.742',-1.345
'0:02.744',-1.470
'0:02.746',-1.450
'0:02.748',-1.445
'0:02.750',-1.440
'0:02.752',-1.270
'0:02.754',-1.325
'0:02.756',-1.235
'0:02.758',-1.220
'0:02.760',-1.325
'0:02.762',-1.480
'0:02.764',-1.545
'0:02.766',-1.515
'0:02.768',-1.465
'0:02.770',-1.375
'0:02.772',-1.305
'0:02.774',-1.320
'0:02.776',-1.285
'0:02.778',-1.330
'0:02.780',-1.355
'0:02.782',-1.500
'0:02.784',-1.535
'0:02.786',-1.470
'0:02.788',-1.435
'0:02.790',-1.485
'0:02.792',-1.445
'0:02.794',-1.290
'0:02.796',-1.305
'0:02.798',-1.290
'0:02.800',-1.330
'0:02.802',-1.460
'0:02.804',-1.595
'0:02.806',-1.545
'0:02.808',-1.455
'0:02.810',-1.410
'0:02.812',-1.350
'0:02.814',-1.265
'0:02.816',-1.280
'0:02.818',-1.290
'0:02.820',-1.425
'0:02.822',-1.490
'0:02.824',-1.500
'0:02.826',-1.605
'0:02.828',-1.450
'0:02.830',-1.425
'0:02.832',-1.240
'0:02.834',-1.160
'0:02.836',-1.290
'0:02.838',-1.385
'0:02.840',-1.340
'0:02.842',-1.430
'0:02.844',-1.495
'0:02.846',-1.585
'0:02.848',-1.490
'0:02.850',-1.405
'0:02.852',-1.330
'0:02.854',-1.235
'0:02.856',-1.230
'0:02.858',-1.305
'0:02.860',-1.405
'0:02.862',-1.490
'0:02.864',-1.505
'0:02.866',-1.395
'0:02.868',-1.260
'0:02.870',-1.190
'0:02.872',-1.125
'0:02.874',-1.015
'0:02.876',-0.980
'0:02.878',-0.955
'0:02.880',-1.000
'0:02.882',-1.185
'0:02.884',-1.340
'0:02.886',-1.325
'0:02.888',-1.335
'0:02.890',-1.290
'0:02.892',-1.325
'0:02.894',-1.265
'0:02.896',-1.270
'0:02.898',-1.415
'0:02.900',-1.555
'0:02.902',-1.690
'0:02.904',-1.660
'0:02.906',-1.645
'0:02.908',-1.530
'0:02.910',-1.490
'0:02.912',-1.440
'0:02.914',-1.335
'0:02.916',-1.330
'0:02.918',-1.360
'0:02.920',-1.360
'0:02.922',-1.630
'0:02.924',-1.590
'0:02.926',-1.535
'0:02.928',-1.490
'0:02.930',-1.280
'0:02.932',-1.230
'0:02.934',-1.240
'0:02.936',-1.245
'0:02.938',-1.260
'0:02.940',-1.360
'0:02.942',-1.435
'0:02.944',-1.480
'0:02.946',-1.425
'0:02.948',-1.425
'0:02.950',-1.330
'0:02.952',-1.210
'0:02.954',-1.115
'0:02.956',-1.240
'0:02.958',-1.255
'0:02.960',-1.245
'0:02.962',-1.360
'0:02.964',-1.495
'0:02.966',-1.490
'0:02.968',-1.350
'0:02.970',-1.295
'0:02.972',-1.180
'0:02.974',-1.180
'0:02.976',-1.265
'0:02.978',-1.200
'0:02.980',-1.430
'0:02.982',-1.330
'0:02.984',-1.375
'0:02.986',-1.465
'0:02.988',-1.380
'0:02.990',-1.235
'0:02.992',-1.225
'0:02.994',-1.170
'0:02.996',-1.215
'0:02.998',-1.230
'0:03.000',-1.350
'0:03.002',-1.395
'0:03.004',-1.390
'0:03.006',-1.415
'0:03.008',-1.375
'0:03.010',-1.205
'0:03.012',-1.110
'0:03.014',-1.190
'0:03.016',-1.190
'0:03.018',-1.165
'0:03.020',-1.240
'0:03.022',-1.335
'0:03.024',-1.410
'0:03.026',-1.365
'0:03.028',-1.325
'0:03.030',-1.180
'0:03.032',-1.080
'0:03.034',-1.150
'0:03.036',-1.185
'0:03.038',-1.145
'0:03.040',-1.285
'0:03.042',-1.350
'0:03.044',-1.350
'0:03.046',-1.155
'0:03.048',-1.175
'0:03.050',-1.055
'0:03.052',-1.045
'0:03.054',-0.945
'0:03.056',-1.115
'0:03.058',-1.180
'0:03.060',-1.155
'0:03.062',-1.195
'0:03.064',-1.200
'0:03.066',-1.305
'0:03.068',-1.250
'0:03.070',-0.975
'0:03.072',-0.960
'0:03.074',-0.930
'0:03.076',-0.965
'0:03.078',-1.005
'0:03.080',-1.035
'0:03.082',-1.160
'0:03.084',-1.160
'0:03.086',-1.045
'0:03.088',-1.160
'0:03.090',-0.895
'0:03.092',-0.830
'0:03.094',-0.940
'0:03.096',-0.905
'0:03.098',-0.945
'0:03.100',-1.085
'0:03.102',-1.125
'0:03.104',-1.115
'0:03.106',-1.065
'0:03.108',-1.030
'0:03.110',-0.950
'0:03.112',-0.905
'0:03.114',-0.865
'0:03.116',-0.835
'0:03.118',-0.900
'0:03.120',-1.090
'0:03.122',-1.275
'0:03.124',-1.195
'0:03.126',-1.150
'0:03.128',-1.160
'0:03.130',-1.030
'0:03.132',-0.955
'0:03.134',-0.890
'0:03.136',-0.975
'0:03.138',-1.035
'0:03.140',-1.140
'0:03.142',-1.265
'0:03.144',-1.265
'0:03.146',-1.165
'0:03.148',-1.105
'0:03.150',-1.080
'0:03.152',-0.990
'0:03.154',-0.985
'0:03.156',-1.050
'0:03.158',-1.090
'0:03.160',-1.265
'0:03.162',-1.290
'0:03.164',-1.280
'0:03.166',-1.290
'0:03.168',-1.190
'0:03.170',-1.040
'0:03.172',-0.995
'0:03.174',-1.015
'0:03.176',-1.100
'0:03.178',-1.170
'0:03.180',-1.285
'0:03.182',-1.290
'0:03.184',-1.255
'0:03.186',-1.235
'0:03.188',-1.165
'0:03.190',-1.090
'0:03.192',-0.970
'0:03.194',-1.010
'0:03.196',-1.110
'0:03.198',-1.180
'0:03.200',-1.235
'0:03.202',-1.270
'0:03.204',-1.315
'0:03.206',-1.265
'0:03.208',-1.155
'0:03.210',-1.015
'0:03.212',-1.010
'0:03.214',-1.055
'0:03.216',-1.030
'0:03.218',-1.140
'0:03.220',-1.100
'0:03.222',-1.315
'0:03.224',-1.260
'0:03.226',-1.160
'0:03.228',-1.125
'0:03.230',-1.085
'0:03.232',-0.995
'0:03.234',-1.015
'0:03.236',-1.005
'0:03.238',-1.155
'0:03.240',-1.305
'0:03.242',-1.270
'0:03.244',-1.235
'0:03.246',-1.205
'0:03.248',-1.075
'0:03.250',-0.990
'0:03.252',-0.950
'0:03.254',-1.005
'0:03.256',-1.025
'0:03.258',-1.190
'0:03.260',-1.180
'0:03.262',-1.250
'0:03.264',-1.215
'0:03.266',-1.140
'0:03.268',-1.070
'0:03.270',-1.045
'0:03.272',-1.000
'0:03.274',-0.935
'0:03.276',-1.025
'0:03.278',-1.170
'0:03.280',-1.195
'0:03.282',-1.240
'0:03.284',-1.145
'0:03.286',-1.130
'0:03.288',-1.060
'0:03.290',-1.030
'0:03.292',-0.855
'0:03.294',-0.930
'0:03.296',-0.990
'0:03.298',-1.150
'0:03.300',-1.260
'0:03.302',-1.230
'0:03.304',-1.130
'0:03.306',-1.125
'0:03.308',-1.025
'0:03.310',-0.905
'0:03.312',-0.890
'0:03.314',-0.970
'0:03.316',-1.040
'0:03.318',-1.090
'0:03.320',-1.210
'0:03.322',-1.330
'0:03.324',-1.255
'0:03.326',-1.100
'0:03.328',-0.960
'0:03.330',-0.945
'0:03.332',-0.885
'0:03.334',-0.945
'0:03.336',-0.975
'0:03.338',-1.100
'0:03.340',-1.210
'0:03.342',-1.250
'0:03.344',-1.110
'0:03.346',-1.155
'0:03.348',-1.000
'0:03.350',-0.865
'0:03.352',-1.025
'0:03.354',-0.995
'0:03.356',-0.910
'0:03.358',-0.990
'0:03.360',-1.140
'0:03.362',-1.185
'0:03.364',-1.115
'0:03.366',-1.075
'0:03.368',-1.030
'0:03.370',-0.915
'0:03.372',-0.915
'0:03.374',-0.940
'0:03.376',-0.955
'0:03.378',-1.060
'0:03.380',-1.160
'0:03.382',-1.155
'0:03.384',-1.160
'0:03.386',-1.100
'0:03.388',-0.960
'0:03.390',-0.915
'0:03.392',-0.930
'0:03.394',-0.855
'0:03.396',-1.000
'0:03.398',-1.030
'0:03.400',-1.150
'0:03.402',-1.205
'0:03.404',-1.105
'0:03.406',-1.065
'0:03.408',-0.900
'0:03.410',-0.795
'0:03.412',-0.810
'0:03.414',-0.835
'0:03.416',-0.990
'0:03.418',-1.095
'0:03.420',-1.110
'0:03.422',-1.115
'0:03.424',-1.010
'0:03.426',-1.000
'0:03.428',-0.945
'0:03.430',-0.910
'0:03.432',-0.940
'0:03.434',-0.915
'0:03.436',-0.885
'0:03.438',-1.050
'0:03.440',-1.225
'0:03.442',-1.105
'0:03.444',-0.895
'0:03.446',-0.940
'0:03.448',-0.805
'0:03.450',-0.785
'0:03.452',-0.850
'0:03.454',-0.810
'0:03.456',-0.950
'0:03.458',-0.985
'0:03.460',-0.990
'0:03.462',-1.065
'0:03.464',-1.080
'0:03.466',-0.900
'0:03.468',-0.790
'0:03.470',-0.770
'0:03.472',-0.775
'0:03.474',-0.825
'0:03.476',-0.910
'0:03.478',-1.010
'0:03.480',-1.020
'0:03.482',-1.030
'0:03.484',-0.985
'0:03.486',-0.880
'0:03.488',-0.795
'0:03.490',-0.845
'0:03.492',-0.830
'0:03.494',-0.755
'0:03.496',-0.860
'0:03.498',-1.025
'0:03.500',-1.065
'0:03.502',-1.050
'0:03.504',-1.005
'0:03.506',-0.945
'0:03.508',-0.860
'0:03.510',-0.810
'0:03.512',-0.820
'0:03.514',-0.820
'0:03.516',-0.895
'0:03.518',-1.010
'0:03.520',-0.985
'0:03.522',-1.050
'0:03.524',-1.025
'0:03.526',-0.930
'0:03.528',-0.840
'0:03.530',-0.800
'0:03.532',-0.800
'0:03.534',-0.830
'0:03.536',-0.855
'0:03.538',-1.005
'0:03.540',-1.095
'0:03.542',-1.045
'0:03.544',-0.905
'0:03.546',-0.930
'0:03.548',-0.790
'0:03.550',-0.745
'0:03.552',-0.895
'0:03.554',-0.885
'0:03.556',-0.970
'0:03.558',-1.040
'0:03.560',-1.050
'0:03.562',-0.980
'0:03.564',-0.965
'0:03.566',-0.880
'0:03.568',-0.750
'0:03.570',-0.730
'0:03.572',-0.805
'0:03.574',-0.845
'0:03.576',-0.920
'0:03.578',-1.000
'0:03.580',-1.000
'0:03.582',-0.960
'0:03.584',-0.885
'0:03.586',-0.840
'0:03.588',-0.845
'0:03.590',-0.780
'0:03.592',-0.775
'0:03.594',-0.765
'0:03.596',-0.900
'0:03.598',-0.935
'0:03.600',-0.910
'0:03.602',-0.795
'0:03.604',-0.710
'0:03.606',-0.605
'0:03.608',-0.450
'0:03.610',-0.390
'0:03.612',-0.390
'0:03.614',-0.445
'0:03.616',-0.530
'0:03.618',-0.630
'0:03.620',-0.815
'0:03.622',-0.885
'0:03.624',-0.860
'0:03.626',-0.775
'0:03.628',-0.750
'0:03.630',-0.780
'0:03.632',-0.880
'0:03.634',-0.975
'0:03.636',-1.015
'0:03.638',-1.210
'0:03.640',-1.135
'0:03.642',-1.135
'0:03.644',-1.050
'0:03.646',-0.950
'0:03.648',-0.930
'0:03.650',-0.885
'0:03.652',-0.870
'0:03.654',-0.850
'0:03.656',-0.955
'0:03.658',-1.080
'0:03.660',-1.115
'0:03.662',-0.910
'0:03.664',-0.895
'0:03.666',-0.830
'0:03.668',-0.780
'0:03.670',-0.730
'0:03.672',-0.790
'0:03.674',-0.810
'0:03.676',-0.945
'0:03.678',-0.985
'0:03.680',-0.975
'0:03.682',-0.875
'0:03.684',-0.940
'0:03.686',-0.775
'0:03.688',-0.700
'0:03.690',-0.690
'0:03.692',-0.810
'0:03.694',-0.755
'0:03.696',-0.960
'0:03.698',-1.065
'0:03.700',-0.915
'0:03.702',-0.930
'0:03.704',-0.835
'0:03.706',-0.795
'0:03.708',-0.685
'0:03.710',-0.655
'0:03.712',-0.720
'0:03.714',-0.820
'0:03.716',-0.910
'0:03.718',-0.990
'0:03.720',-0.970
'0:03.722',-0.835
'0:03.724',-0.865
'0:03.726',-0.785
'0:03.728',-0.675
'0:03.730',-0.685
'0:03.732',-0.745
'0:03.734',-0.790
'0:03.736',-0.915
'0:03.738',-0.910
'0:03.740',-0.915
'0:03.742',-0.900
'0:03.744',-0.775
'0:03.746',-0.655
'0:03.748',-0.660
'0:03.750',-0.670
'0:03.752',-0.715
'0:03.754',-0.845
'0:03.756',-0.910
'0:03.758',-0.940
'0:03.760',-1.005
'0:03.762',-0.815
'0:03.764',-0.620
'0:03.766',-0.620
'0:03.768',-0.585
'0:03.770',-0.665
'0:03.772',-0.670
'0:03.774',-0.735
'0:03.776',-0.830
'0:03.778',-0.855
'0:03.780',-0.885
'0:03.782',-0.830
'0:03.784',-0.585
'0:03.786',-0.575
'0:03.788',-0.520
'0:03.790',-0.580
'0:03.792',-0.595
'0:03.794',-0.635
'0:03.796',-0.905
'0:03.798',-0.660
'0:03.800',-0.660
'0:03.802',-0.605
'0:03.804',-0.520
'0:03.806',-0.440
'0:03.808',-0.360
'0:03.810',-0.400
'0:03.812',-0.395
'0:03.814',-0.485
'0:03.816',-0.610
'0:03.818',-0.540
'0:03.820',-0.640
'0:03.822',-0.655
'0:03.824',-0.415
'0:03.826',-0.365
'0:03.828',-0.360
'0:03.830',-0.285
'0:03.832',-0.415
'0:03.834',-0.455
'0:03.836',-0.580
'0:03.838',-0.615
'0:03.840',-0.570
'0:03.842',-0.470
'0:03.844',-0.375
'0:03.846',-0.305
'0:03.848',-0.265
'0:03.850',-0.440
'0:03.852',-0.430
'0:03.854',-0.575
'0:03.856',-0.715
'0:03.858',-0.710
'0:03.860',-0.715
'0:03.862',-0.545
'0:03.864',-0.565
'0:03.866',-0.465
'0:03.868',-0.395
'0:03.870',-0.455
'0:03.872',-0.525
'0:03.874',-0.730
'0:03.876',-0.700
'0:03.878',-0.740
'0:03.880',-0.765
'0:03.882',-0.750
'0:03.884',-0.670
'0:03.886',-0.550
'0:03.888',-0.555
'0:03.890',-0.640
'0:03.892',-0.665
'0:03.894',-0.720
'0:03.896',-0.950
'0:03.898',-0.880
'0:03.900',-0.780
'0:03.902',-0.790
'0:03.904',-0.635
'0:03.906',-0.525
'0:03.908',-0.580
'0:03.910',-0.640
'0:03.912',-0.735
'0:03.914',-0.940
'0:03.916',-0.970
'0:03.918',-0.880
'0:03.920',-0.855
'0:03.922',-0.815
'0:03.924',-0.715
'0:03.926',-0.640
'0:03.928',-0.620
'0:03.930',-0.705
'0:03.932',-0.620
'0:03.934',-0.810
'0:03.936',-0.865
'0:03.938',-0.905
'0:03.940',-0.835
'0:03.942',-0.715
'0:03.944',-0.705
'0:03.946',-0.640
'0:03.948',-0.640
'0:03.950',-0.695
'0:03.952',-0.700
'0:03.954',-0.870
'0:03.956',-0.915
'0:03.958',-0.890
'0:03.960',-0.845
'0:03.962',-0.760
'0:03.964',-0.660
'0:03.966',-0.610
'0:03.968',-0.580
'0:03.970',-0.645
'0:03.972',-0.720
'0:03.974',-0.865
'0:03.976',-0.860
'0:03.978',-0.840
'0:03.980',-0.820
'0:03.982',-0.735
'0:03.984',-0.640
'0:03.986',-0.585
'0:03.988',-0.540
'0:03.990',-0.670
'0:03.992',-0.725
'0:03.994',-0.810
'0:03.996',-0.850
'0:03.998',-0.860
'0:04.000',-0.830
'0:04.002',-0.790
'0:04.004',-0.590
'0:04.006',-0.580
'0:04.008',-0.585
'0:04.010',-0.535
'0:04.012',-0.640
'0:04.014',-0.805
'0:04.016',-0.910
'0:04.018',-0.915
'0:04.020',-0.890
'0:04.022',-0.855
'0:04.024',-0.620
'0:04.026',-0.530
'0:04.028',-0.610
'0:04.030',-0.685
'0:04.032',-0.750
'0:04.034',-0.740
'0:04.036',-0.935
'0:04.038',-0.860
'0:04.040',-0.735
'0:04.042',-0.710
'0:04.044',-0.595
'0:04.046',-0.510
'0:04.048',-0.585
'0:04.050',-0.645
'0:04.052',-0.735
'0:04.054',-0.760
'0:04.056',-0.895
'0:04.058',-0.885
'0:04.060',-0.795
'0:04.062',-0.700
'0:04.064',-0.620
'0:04.066',-0.535
'0:04.068',-0.640
'0:04.070',-0.730
'0:04.072',-0.775
'0:04.074',-0.805
'0:04.076',-0.905
'0:04.078',-0.885
'0:04.080',-0.850
'0:04.082',-0.755
'0:04.084',-0.550
'0:04.086',-0.560
'0:04.088',-0.615
'0:04.090',-0.700
'0:04.092',-0.710
'0:04.094',-0.775
'0:04.096',-0.930
'0:04.098',-0.800
'0:04.100',-0.815
'0:04.102',-0.680
'0:04.104',-0.645
'0:04.106',-0.615
'0:04.108',-0.580
'0:04.110',-0.665
'0:04.112',-0.795
'0:04.114',-0.820
'0:04.116',-0.835
'0:04.118',-0.845
'0:04.120',-0.790
'0:04.122',-0.770
'0:04.124',-0.575
'0:04.126',-0.585
'0:04.128',-0.595
'0:04.130',-0.645
'0:04.132',-0.715
'0:04.134',-0.815
'0:04.136',-0.885
'0:04.138',-0.865
'0:04.140',-0.785
'0:04.142',-0.665
'0:04.144',-0.585
'0:04.146',-0.595
'0:04.148',-0.665
'0:04.150',-0.615
'0:04.152',-0.740
'0:04.154',-0.925
'0:04.156',-0.925
'0:04.158',-0.820
'0:04.160',-0.740
'0:04.162',-0.715
'0:04.164',-0.640
'0:04.166',-0.620
'0:04.168',-0.570
'0:04.170',-0.635
'0:04.172',-0.775
'0:04.174',-0.880
'0:04.176',-0.865
'0:04.178',-0.780
'0:04.180',-0.750
'0:04.182',-0.635
'0:04.184',-0.630
'0:04.186',-0.665
'0:04.188',-0.620
'0:04.190',-0.680
'0:04.192',-0.655
'0:04.194',-0.750
'0:04.196',-0.865
'0:04.198',-0.815
'0:04.200',-0.810
'0:04.202',-0.765
'0:04.204',-0.610
'0:04.206',-0.555
'0:04.208',-0.540
'0:04.210',-0.625
'0:04.212',-0.720
'0:04.214',-0.800
'0:04.216',-0.800
'0:04.218',-0.765
'0:04.220',-0.700
'0:04.222',-0.585
'0:04.224',-0.485
'0:04.226',-0.495
'0:04.228',-0.650
'0:04.230',-0.585
'0:04.232',-0.695
'0:04.234',-0.825
'0:04.236',-0.840
'0:04.238',-0.685
'0:04.240',-0.695
'0:04.242',-0.495
'0:04.244',-0.560
'0:04.246',-0.510
'0:04.248',-0.490
'0:04.250',-0.550
'0:04.252',-0.680
'0:04.254',-0.765
'0:04.256',-0.770
'0:04.258',-0.780
'0:04.260',-0.785
'0:04.262',-0.625
'0:04.264',-0.655
'0:04.266',-0.520
'0:04.268',-0.675
'0:04.270',-0.660
'0:04.272',-0.825
'0:04.274',-0.870
'0:04.276',-0.830
'0:04.278',-0.780
'0:04.280',-0.780
'0:04.282',-0.710
'0:04.284',-0.615
'0:04.286',-0.620
'0:04.288',-0.655
'0:04.290',-0.720
'0:04.292',-0.750
'0:04.294',-0.730
'0:04.296',-0.920
'0:04.298',-1.000
'0:04.300',-0.775
'0:04.302',-0.595
'0:04.304',-0.620
'0:04.306',-0.645
'0:04.308',-0.635
'0:04.310',-0.725
'0:04.312',-0.845
'0:04.314',-0.890
'0:04.316',-0.880
'0:04.318',-0.850
'0:04.320',-0.760
'0:04.322',-0.665
'0:04.324',-0.540
'0:04.326',-0.605
'0:04.328',-0.685
'0:04.330',-0.740
'0:04.332',-0.850
'0:04.334',-0.765
'0:04.336',-0.835
'0:04.338',-0.885
'0:04.340',-0.880
'0:04.342',-0.625
'0:04.344',-0.615
'0:04.346',-0.645
'0:04.348',-0.720
'0:04.350',-0.745
'0:04.352',-0.845
'0:04.354',-0.905
'0:04.356',-0.890
'0:04.358',-0.870
'0:04.360',-0.765
'0:04.362',-0.625
'0:04.364',-0.520
'0:04.366',-0.615
'0:04.368',-0.435
'0:04.370',-0.505
'0:04.372',-0.545
'0:04.374',-0.710
'0:04.376',-0.475
'0:04.378',-0.280
'0:04.380',-0.190
'0:04.382',-0.110
'0:04.384',-0.145
'0:04.386',-0.205
'0:04.388',-0.405
'0:04.390',-0.570
'0:04.392',-0.730
'0:04.394',-0.900
'0:04.396',-0.965
'0:04.398',-0.930
'0:04.400',-0.895
'0:04.402',-0.935
'0:04.404',-0.775
'0:04.406',-0.935
'0:04.408',-1.005
'0:04.410',-1.040
'0:04.412',-1.060
'0:04.414',-1.010
'0:04.416',-0.990
'0:04.418',-0.970
'0:04.420',-0.825
'0:04.422',-0.720
'0:04.424',-0.700
'0:04.426',-0.740
'0:04.428',-0.745
'0:04.430',-0.755
'0:04.432',-0.895
'0:04.434',-0.925
'0:04.436',-0.870
'0:04.438',-0.855
'0:04.440',-0.780
'0:04.442',-0.630
'0:04.444',-0.605
'0:04.446',-0.585
'0:04.448',-0.710
'0:04.450',-0.815
'0:04.452',-0.895
'0:04.454',-0.950
'0:04.456',-0.845
'0:04.458',-0.845
'0:04.460',-0.660
'0:04.462',-0.665
'0:04.464',-0.585
'0:04.466',-0.650
'0:04.468',-0.635
'0:04.470',-0.815
'0:04.472',-0.960
'0:04.474',-0.865
'0:04.476',-0.845
'0:04.478',-0.770
'0:04.480',-0.685
'0:04.482',-0.580
'0:04.484',-0.540
'0:04.486',-0.710
'0:04.488',-0.640
'0:04.490',-0.795
'0:04.492',-0.825
'0:04.494',-0.800
'0:04.496',-0.900
'0:04.498',-0.730
'0:04.500',-0.705
'0:04.502',-0.560
'0:04.504',-0.600
'0:04.506',-0.690
'0:04.508',-0.575
'0:04.510',-0.770
'0:04.512',-0.855
'0:04.514',-0.865
'0:04.516',-0.790
'0:04.518',-0.720
'0:04.520',-0.735
'0:04.522',-0.565
'0:04.524',-0.520
'0:04.526',-0.605
'0:04.528',-0.740
'0:04.530',-0.785
'0:04.532',-0.850
'0:04.534',-0.790
'0:04.536',-0.710
'0:04.538',-0.690
'0:04.540',-0.595
'0:04.542',-0.520
'0:04.544',-0.515
'0:04.546',-0.650
'0:04.548',-0.560
'0:04.550',-0.730
'0:04.552',-0.750
'0:04.554',-0.725
'0:04.556',-0.665
'0:04.558',-0.645
'0:04.560',-0.450
'0:04.562',-0.395
'0:04.564',-0.385
'0:04.566',-0.440
'0:04.568',-0.540
'0:04.570',-0.525
'0:04.572',-0.650
'0:04.574',-0.675
'0:04.576',-0.520
'0:04.578',-0.495
'0:04.580',-0.350
'0:04.582',-0.295
'0:04.584',-0.290
'0:04.586',-0.390
'0:04.588',-0.435
'0:04.590',-0.435
'0:04.592',-0.600
'0:04.594',-0.545
'0:04.596',-0.445
'0:04.598',-0.400
'0:04.600',-0.275
'0:04.602',-0.240
'0:04.604',-0.300
'0:04.606',-0.325
'0:04.608',-0.470
'0:04.610',-0.490
'0:04.612',-0.615
'0:04.614',-0.555
'0:04.616',-0.485
'0:04.618',-0.435
'0:04.620',-0.365
'0:04.622',-0.330
'0:04.624',-0.375
'0:04.626',-0.465
'0:04.628',-0.500
'0:04.630',-0.565
'0:04.632',-0.575
'0:04.634',-0.595
'0:04.636',-0.550
'0:04.638',-0.625
'0:04.640',-0.565
'0:04.642',-0.445
'0:04.644',-0.480
'0:04.646',-0.490
'0:04.648',-0.640
'0:04.650',-0.725
'0:04.652',-0.855
'0:04.654',-0.765
'0:04.656',-0.755
'0:04.658',-0.650
'0:04.660',-0.570
'0:04.662',-0.505
'0:04.664',-0.620
'0:04.666',-0.690
'0:04.668',-0.760
'0:04.670',-0.825
'0:04.672',-0.820
'0:04.674',-0.800
'0:04.676',-0.800
'0:04.678',-0.795
'0:04.680',-0.670
'0:04.682',-0.595
'0:04.684',-0.730
'0:04.686',-0.680
'0:04.688',-0.790
'0:04.690',-0.945
'0:04.692',-0.910
'0:04.694',-0.880
'0:04.696',-0.820
'0:04.698',-0.690
'0:04.700',-0.570
'0:04.702',-0.615
'0:04.704',-0.635
'0:04.706',-0.765
'0:04.708',-0.810
'0:04.710',-0.800
'0:04.712',-0.870
'0:04.714',-0.930
'0:04.716',-0.830
'0:04.718',-0.645
'0:04.720',-0.640
'0:04.722',-0.680
'0:04.724',-0.650
'0:04.726',-0.690
'0:04.728',-0.800
'0:04.730',-0.840
'0:04.732',-0.830
'0:04.734',-0.845
'0:04.736',-0.825
'0:04.738',-0.725
'0:04.740',-0.640
'0:04.742',-0.600
'0:04.744',-0.685
'0:04.746',-0.700
'0:04.748',-0.770
'0:04.750',-0.970
'0:04.752',-0.955
'0:04.754',-0.900
'0:04.756',-0.845
'0:04.758',-0.740
'0:04.760',-0.645
'0:04.762',-0.605
'0:04.764',-0.605
'0:04.766',-0.660
'0:04.768',-0.825
'0:04.770',-0.965
'0:04.772',-0.955
'0:04.774',-0.830
'0:04.776',-0.915
'0:04.778',-0.845
'0:04.780',-0.495
'0:04.782',-0.610
'0:04.784',-0.650
'0:04.786',-0.750
'0:04.788',-0.835
'0:04.790',-0.885
'0:04.792',-0.945
'0:04.794',-0.840
'0:04.796',-0.795
'0:04.798',-0.685
'0:04.800',-0.645
'0:04.802',-0.725
'0:04.804',-0.760
'0:04.806',-0.755
'0:04.808',-0.840
'0:04.810',-0.960
'0:04.812',-0.900
'0:04.814',-0.770
'0:04.816',-0.915
'0:04.818',-0.705
'0:04.820',-0.660
'0:04.822',-0.670
'0:04.824',-0.685
'0:04.826',-0.735
'0:04.828',-0.890
'0:04.830',-0.920
'0:04.832',-0.965
'0:04.834',-0.960
'0:04.836',-0.855
'0:04.838',-0.680
'0:04.840',-0.660
'0:04.842',-0.720
'0:04.844',-0.760
'0:04.846',-0.800
'0:04.848',-0.885
'0:04.850',-0.955
'0:04.852',-0.955
'0:04.854',-0.930
'0:04.856',-0.900
'0:04.858',-0.660
'0:04.860',-0.715
'0:04.862',-0.650
'0:04.864',-0.700
'0:04.866',-0.765
'0:04.868',-1.000
'0:04.870',-1.020
'0:04.872',-0.910
'0:04.874',-0.865
'0:04.876',-0.910
'0:04.878',-0.705
'0:04.880',-0.680
'0:04.882',-0.670
'0:04.884',-0.795
'0:04.886',-0.845
'0:04.888',-0.905
'0:04.890',-0.950
'0:04.892',-0.920
'0:04.894',-0.975
'0:04.896',-0.815
'0:04.898',-0.735
'0:04.900',-0.650
'0:04.902',-0.675
'0:04.904',-0.800
'0:04.906',-0.805
'0:04.908',-0.990
'0:04.910',-1.100
'0:04.912',-0.975
'0:04.914',-0.905
'0:04.916',-0.865
'0:04.918',-0.735
'0:04.920',-0.660
'0:04.922',-0.695
'0:04.924',-0.820
'0:04.926',-0.910
'0:04.928',-0.900
'0:04.930',-0.955
'0:04.932',-0.995
'0:04.934',-0.990
'0:04.936',-0.795
'0:04.938',-0.710
'0:04.940',-0.655
'0:04.942',-0.695
'0:04.944',-0.825
'0:04.946',-0.920
'0:04.948',-0.970
'0:04.950',-1.000
'0:04.952',-0.955
'0:04.954',-0.940
'0:04.956',-0.840
'0:04.958',-0.705
'0:04.960',-0.635
'0:04.962',-0.790
'0:04.964',-0.825
'0:04.966',-0.895
'0:04.968',-0.820
'0:04.970',-0.985
'0:04.972',-1.110
'0:04.974',-0.955
'0:04.976',-0.735
'0:04.978',-0.655
'0:04.980',-0.620
'0:04.982',-0.815
'0:04.984',-0.865
'0:04.986',-0.855
'0:04.988',-0.860
'0:04.990',-0.935
'0:04.992',-0.925
'0:04.994',-0.845
'0:04.996',-0.685
'0:04.998',-0.805
'0:05.000',-0.660
'0:05.002',-0.725
'0:05.004',-0.760
'0:05.006',-0.790
'0:05.008',-0.975
'0:05.010',-0.950
'0:05.012',-0.855
'0:05.014',-0.795
'0:05.016',-0.715
'0:05.018',-0.785
'0:05.020',-0.755
'0:05.022',-0.770
'0:05.024',-0.770
'0:05.026',-0.895
'0:05.028',-0.975
'0:05.030',-0.930
'0:05.032',-0.905
'0:05.034',-0.930
'0:05.036',-0.820
'0:05.038',-0.765
'0:05.040',-0.790
'0:05.042',-0.810
'0:05.044',-0.850
'0:05.046',-0.890
'0:05.048',-1.045
'0:05.050',-1.100
'0:05.052',-0.985
'0:05.054',-1.015
'0:05.056',-0.890
'0:05.058',-0.795
'0:05.060',-0.745
'0:05.062',-0.760
'0:05.064',-0.855
'0:05.066',-1.010
'0:05.068',-1.015
'0:05.070',-1.025
'0:05.072',-0.970
'0:05.074',-0.910
'0:05.076',-0.930
'0:05.078',-0.695
'0:05.080',-0.755
'0:05.082',-0.755
'0:05.084',-0.845
'0:05.086',-0.990
'0:05.088',-1.010
'0:05.090',-1.040
'0:05.092',-0.960
'0:05.094',-0.980
'0:05.096',-0.780
'0:05.098',-0.740
'0:05.100',-0.725
'0:05.102',-0.925
'0:05.104',-0.895
'0:05.106',-1.000
'0:05.108',-0.995
'0:05.110',-1.085
'0:05.112',-1.055
'0:05.114',-0.990
'0:05.116',-0.800
'0:05.118',-0.845
'0:05.120',-0.800
'0:05.122',-0.710
'0:05.124',-0.880
'0:05.126',-1.030
'0:05.128',-1.125
'0:05.130',-1.070
'0:05.132',-0.960
'0:05.134',-0.755
'0:05.136',-0.685
'0:05.138',-0.565
'0:05.140',-0.520
'0:05.142',-0.545
'0:05.144',-0.520
'0:05.146',-0.640
'0:05.148',-0.565
'0:05.150',-0.645
'0:05.152',-0.650
'0:05.154',-0.685
'0:05.156',-0.650
'0:05.158',-0.725
'0:05.160',-0.820
'0:05.162',-0.935
'0:05.164',-0.995
'0:05.166',-1.275
'0:05.168',-1.285
'0:05.170',-1.260
'0:05.172',-1.170
'0:05.174',-1.225
'0:05.176',-1.010
'0:05.178',-1.065
'0:05.180',-1.045
'0:05.182',-1.035
'0:05.184',-1.075
'0:05.186',-1.160
'0:05.188',-1.130
'0:05.190',-1.090
'0:05.192',-1.115
'0:05.194',-1.015
'0:05.196',-0.825
'0:05.198',-0.765
'0:05.200',-0.855
'0:05.202',-0.900
'0:05.204',-1.000
'0:05.206',-1.005
'0:05.208',-1.155
'0:05.210',-1.085
'0:05.212',-0.960
'0:05.214',-0.945
'0:05.216',-0.785
'0:05.218',-0.810
'0:05.220',-0.810
'0:05.222',-0.850
'0:05.224',-0.895
'0:05.226',-0.985
'0:05.228',-1.070
'0:05.230',-1.080
'0:05.232',-1.005
'0:05.234',-0.915
'0:05.236',-0.840
'0:05.238',-0.810
'0:05.240',-0.815
'0:05.242',-0.875
'0:05.244',-0.965
'0:05.246',-0.985
'0:05.248',-1.025
'0:05.250',-1.060
'0:05.252',-0.985
'0:05.254',-0.920
'0:05.256',-0.795
'0:05.258',-0.775
'0:05.260',-0.880
'0:05.262',-0.925
'0:05.264',-0.935
'0:05.266',-0.965
'0:05.268',-1.130
'0:05.270',-0.965
'0:05.272',-1.080
'0:05.274',-0.940
'0:05.276',-0.700
'0:05.278',-0.745
'0:05.280',-0.835
'0:05.282',-0.915
'0:05.284',-1.005
'0:05.286',-0.970
'0:05.288',-1.025
'0:05.290',-1.035
'0:05.292',-0.985
'0:05.294',-0.905
'0:05.296',-0.730
'0:05.298',-0.725
'0:05.300',-0.760
'0:05.302',-0.795
'0:05.304',-0.880
'0:05.306',-0.980
'0:05.308',-1.070
'0:05.310',-1.015
'0:05.312',-0.975
'0:05.314',-0.750
'0:05.316',-0.780
'0:05.318',-0.695
'0:05.320',-0.755
'0:05.322',-0.745
'0:05.324',-0.830
'0:05.326',-0.930
'0:05.328',-0.935
'0:05.330',-0.890
'0:05.332',-0.830
'0:05.334',-0.695
'0:05.336',-0.625
'0:05.338',-0.610
'0:05.340',-0.735
'0:05.342',-0.585
'0:05.344',-0.700
'0:05.346',-0.870
'0:05.348',-0.845
'0:05.350',-0.735
'0:05.352',-0.775
'0:05.354',-0.635
'0:05.356',-0.630
'0:05.358',-0.490
'0:05.360',-0.555
'0:05.362',-0.575
'0:05.364',-0.645
'0:05.366',-0.830
'0:05.368',-0.740
'0:05.370',-0.750
'0:05.372',-0.670
'0:05.374',-0.625
'0:05.376',-0.530
'0:05.378',-0.440
'0:05.380',-0.485
'0:05.382',-0.725
'0:05.384',-0.830
'0:05.386',-0.885
'0:05.388',-0.885
'0:05.390',-0.675
'0:05.392',-0.775
'0:05.394',-0.705
'0:05.396',-0.610
'0:05.398',-0.570
'0:05.400',-0.650
'0:05.402',-0.755
'0:05.404',-0.915
'0:05.406',-1.005
'0:05.408',-0.955
'0:05.410',-0.895
'0:05.412',-0.885
'0:05.414',-0.795
'0:05.416',-0.755
'0:05.418',-0.675
'0:05.420',-0.785
'0:05.422',-0.945
'0:05.424',-1.025
'0:05.426',-1.070
'0:05.428',-0.985
'0:05.430',-1.010
'0:05.432',-0.930
'0:05.434',-0.835
'0:05.436',-0.755
'0:05.438',-0.895
'0:05.440',-0.860
'0:05.442',-0.930
'0:05.444',-0.975
'0:05.446',-1.065
'0:05.448',-1.115
'0:05.450',-0.985
'0:05.452',-0.860
'0:05.454',-0.865
'0:05.456',-0.850
'0:05.458',-0.815
'0:05.460',-0.830
'0:05.462',-1.020
'0:05.464',-1.130
'0:05.466',-1.195
'0:05.468',-1.100
'0:05.470',-1.060
'0:05.472',-1.050
'0:05.474',-0.870
'0:05.476',-0.775
'0:05.478',-0.790
'0:05.480',-0.880
'0:05.482',-0.915
'0:05.484',-1.080
'0:05.486',-1.195
'0:05.488',-1.035
'0:05.490',-0.980
'0:05.492',-0.970
'0:05.494',-0.825
'0:05.496',-0.860
'0:05.498',-0.885
'0:05.500',-0.815
'0:05.502',-0.985
'0:05.504',-1.095
'0:05.506',-1.065
'0:05.508',-1.065
'0:05.510',-1.005
'0:05.512',-0.945
'0:05.514',-0.850
'0:05.516',-0.805
'0:05.518',-0.840
'0:05.520',-0.870
'0:05.522',-0.920
'0:05.524',-0.900
'0:05.526',-1.095
'0:05.528',-1.075
'0:05.530',-1.080
'0:05.532',-0.940
'0:05.534',-0.895
'0:05.536',-0.835
'0:05.538',-0.870
'0:05.540',-0.960
'0:05.542',-0.960
'0:05.544',-1.050
'0:05.546',-1.070
'0:05.548',-1.060
'0:05.550',-1.015
'0:05.552',-0.900
'0:05.554',-0.825
'0:05.556',-0.830
'0:05.558',-0.860
'0:05.560',-0.805
'0:05.562',-1.055
'0:05.564',-1.080
'0:05.566',-1.220
'0:05.568',-1.075
'0:05.570',-0.955
'0:05.572',-0.905
'0:05.574',-0.850
'0:05.576',-0.800
'0:05.578',-0.885
'0:05.580',-0.935
'0:05.582',-1.010
'0:05.584',-1.090
'0:05.586',-1.130
'0:05.588',-1.000
'0:05.590',-1.005
'0:05.592',-0.965
'0:05.594',-0.845
'0:05.596',-0.815
'0:05.598',-0.895
'0:05.600',-0.955
'0:05.602',-0.990
'0:05.604',-1.150
'0:05.606',-1.145
'0:05.608',-1.035
'0:05.610',-0.985
'0:05.612',-0.850
'0:05.614',-0.855
'0:05.616',-0.895
'0:05.618',-0.975
'0:05.620',-0.925
'0:05.622',-0.995
'0:05.624',-1.060
'0:05.626',-1.140
'0:05.628',-1.060
'0:05.630',-1.145
'0:05.632',-0.915
'0:05.634',-0.875
'0:05.636',-0.805
'0:05.638',-0.790
'0:05.640',-0.910
'0:05.642',-1.000
'0:05.644',-1.015
'0:05.646',-1.145
'0:05.648',-1.200
'0:05.650',-1.055
'0:05.652',-0.915
'0:05.654',-0.880
'0:05.656',-0.850
'0:05.658',-0.890
'0:05.660',-0.925
'0:05.662',-1.070
'0:05.664',-1.075
'0:05.666',-1.090
'0:05.668',-1.155
'0:05.670',-1.080
'0:05.672',-0.835
'0:05.674',-0.835
'0:05.676',-0.845
'0:05.678',-0.870
'0:05.680',-0.940
'0:05.682',-1.045
'0:05.684',-1.080
'0:05.686',-1.180
'0:05.688',-1.045
'0:05.690',-1.015
'0:05.692',-0.920
'0:05.694',-0.825
'0:05.696',-0.825
'0:05.698',-0.855
'0:05.700',-0.960
'0:05.702',-1.035
'0:05.704',-1.130
'0:05.706',-1.200
'0:05.708',-1.060
'0:05.710',-0.980
'0:05.712',-0.850
'0:05.714',-0.880
'0:05.716',-0.820
'0:05.718',-0.865
'0:05.720',-0.915
'0:05.722',-1.085
'0:05.724',-1.110
'0:05.726',-1.095
'0:05.728',-1.105
'0:05.730',-0.960
'0:05.732',-0.900
'0:05.734',-0.845
'0:05.736',-0.795
'0:05.738',-0.870
'0:05.740',-0.955
'0:05.742',-1.005
'0:05.744',-1.035
'0:05.746',-1.035
'0:05.748',-1.030
'0:05.750',-0.955
'0:05.752',-0.805
'0:05.754',-0.850
'0:05.756',-0.760
'0:05.758',-0.785
'0:05.760',-0.925
'0:05.762',-0.970
'0:05.764',-1.070
'0:05.766',-1.085
'0:05.768',-1.030
'0:05.770',-0.960
'0:05.772',-0.800
'0:05.774',-0.765
'0:05.776',-0.755
'0:05.778',-0.790
'0:05.780',-1.000
'0:05.782',-1.050
'0:05.784',-1.135
'0:05.786',-1.025
'0:05.788',-1.090
'0:05.790',-1.025
'0:05.792',-0.855
'0:05.794',-0.790
'0:05.796',-0.880
'0:05.798',-0.910
'0:05.800',-0.955
'0:05.802',-1.060
'0:05.804',-1.185
'0:05.806',-1.155
'0:05.808',-0.955
'0:05.810',-0.955
'0:05.812',-0.900
'0:05.814',-0.860
'0:05.816',-0.910
'0:05.818',-0.885
'0:05.820',-1.010
'0:05.822',-1.105
'0:05.824',-1.090
'0:05.826',-1.060
'0:05.828',-1.050
'0:05.830',-0.970
'0:05.832',-0.975
'0:05.834',-0.755
'0:05.836',-0.850
'0:05.838',-0.980
'0:05.840',-0.940
'0:05.842',-1.160
'0:05.844',-1.170
'0:05.846',-1.040
'0:05.848',-1.045
'0:05.850',-0.860
'0:05.852',-0.865
'0:05.854',-0.875
'0:05.856',-0.865
'0:05.858',-0.950
'0:05.860',-1.025
'0:05.862',-1.080
'0:05.864',-1.145
'0:05.866',-1.125
'0:05.868',-1.135
'0:05.870',-0.955
'0:05.872',-0.765
'0:05.874',-0.760
'0:05.876',-0.870
'0:05.878',-0.955
'0:05.880',-0.985
'0:05.882',-1.055
'0:05.884',-1.145
'0:05.886',-1.060
'0:05.888',-1.010
'0:05.890',-0.940
'0:05.892',-0.875
'0:05.894',-0.690
'0:05.896',-0.685
'0:05.898',-0.705
'0:05.900',-0.910
'0:05.902',-0.835
'0:05.904',-0.785
'0:05.906',-0.785
'0:05.908',-0.770
'0:05.910',-0.560
'0:05.912',-0.495
'0:05.914',-0.570
'0:05.916',-0.675
'0:05.918',-0.715
'0:05.920',-0.900
'0:05.922',-1.075
'0:05.924',-1.130
'0:05.926',-1.200
'0:05.928',-1.210
'0:05.930',-1.170
'0:05.932',-1.025
'0:05.934',-1.055
'0:05.936',-0.995
'0:05.938',-1.100
'0:05.940',-1.245
'0:05.942',-1.240
'0:05.944',-1.240
'0:05.946',-1.205
'0:05.948',-1.100
'0:05.950',-0.935
'0:05.952',-0.915
'0:05.954',-0.865
'0:05.956',-0.960
'0:05.958',-0.975
'0:05.960',-0.980
'0:05.962',-1.060
'0:05.964',-1.090
'0:05.966',-1.090
'0:05.968',-0.915
'0:05.970',-0.900
'0:05.972',-0.885
'0:05.974',-0.765
'0:05.976',-0.945
'0:05.978',-0.980
'0:05.980',-0.975
'0:05.982',-1.010
'0:05.984',-1.075
'0:05.986',-1.070
'0:05.988',-0.960
'0:05.990',-0.820
'0:05.992',-0.895
'0:05.994',-0.970
'0:05.996',-0.885
'0:05.998',-0.855
'0:06.000',-0.940
'0:06.002',-1.110
'0:06.004',-1.170
'0:06.006',-1.015
'0:06.008',-0.900
'0:06.010',-0.885
'0:06.012',-0.815
'0:06.014',-0.780
'0:06.016',-0.880
'0:06.018',-0.945
'0:06.020',-1.030
'0:06.022',-1.140
'0:06.024',-1.050
'0:06.026',-1.015
'0:06.028',-0.975
'0:06.030',-0.840
'0:06.032',-0.795
'0:06.034',-0.805
'0:06.036',-0.845
'0:06.038',-0.890
'0:06.040',-0.925
'0:06.042',-1.010
'0:06.044',-0.970
'0:06.046',-1.050
'0:06.048',-0.940
'0:06.050',-0.910
'0:06.052',-0.805
'0:06.054',-0.750
'0:06.056',-0.830
'0:06.058',-0.850
'0:06.060',-1.020
'0:06.062',-1.000
'0:06.064',-0.965
'0:06.066',-0.910
'0:06.068',-0.885
'0:06.070',-0.845
'0:06.072',-0.690
'0:06.074',-0.650
'0:06.076',-0.795
'0:06.078',-0.915
'0:06.080',-0.925
'0:06.082',-0.985
'0:06.084',-0.965
'0:06.086',-0.925
'0:06.088',-0.820
'0:06.090',-0.795
'0:06.092',-0.630
'0:06.094',-0.670
'0:06.096',-0.670
'0:06.098',-0.730
'0:06.100',-0.890
'0:06.102',-0.855
'0:06.104',-0.860
'0:06.106',-0.750
'0:06.108',-0.680
'0:06.110',-0.580
'0:06.112',-0.535
'0:06.114',-0.560
'0:06.116',-0.625
'0:06.118',-0.685
'0:06.120',-0.820
'0:06.122',-0.810
'0:06.124',-0.750
'0:06.126',-0.785
'0:06.128',-0.595
'0:06.130',-0.580
'0:06.132',-0.595
'0:06.134',-0.645
'0:06.136',-0.565
'0:06.138',-0.640
'0:06.140',-0.755
'0:06.142',-0.915
'0:06.144',-0.815
'0:06.146',-0.795
'0:06.148',-0.680
'0:06.150',-0.585
'0:06.152',-0.595
'0:06.154',-0.575
'0:06.156',-0.705
'0:06.158',-0.845
'0:06.160',-0.950
'0:06.162',-0.925
'0:06.164',-0.810
'0:06.166',-0.900
'0:06.168',-0.795
'0:06.170',-0.695
'0:06.172',-0.675
'0:06.174',-0.760
'0:06.176',-0.845
'0:06.178',-0.935
'0:06.180',-1.050
'0:06.182',-1.015
'0:06.184',-0.920
'0:06.186',-0.900
'0:06.188',-0.785
'0:06.190',-0.745
'0:06.192',-0.760
'0:06.194',-0.795
'0:06.196',-0.835
'0:06.198',-0.980
'0:06.200',-1.095
'0:06.202',-1.070
'0:06.204',-0.995
'0:06.206',-0.880
'0:06.208',-0.835
'0:06.210',-0.825
'0:06.212',-0.835
'0:06.214',-0.860
'0:06.216',-0.860
'0:06.218',-0.935
'0:06.220',-0.975
'0:06.222',-1.120
'0:06.224',-1.100
'0:06.226',-0.980
'0:06.228',-0.885
'0:06.230',-0.830
'0:06.232',-0.735
'0:06.234',-0.790
'0:06.236',-0.845
'0:06.238',-1.040
'0:06.240',-1.110
'0:06.242',-1.060
'0:06.244',-1.025
'0:06.246',-0.970
'0:06.248',-0.900
'0:06.250',-0.780
'0:06.252',-0.735
'0:06.254',-0.815
'0:06.256',-0.895
'0:06.258',-1.080
'0:06.260',-0.995
'0:06.262',-1.085
'0:06.264',-1.015
'0:06.266',-0.920
'0:06.268',-0.815
'0:06.270',-0.780
'0:06.272',-0.755
'0:06.274',-0.710
'0:06.276',-0.850
'0:06.278',-0.950
'0:06.280',-1.065
'0:06.282',-1.120
'0:06.284',-1.060
'0:06.286',-0.950
'0:06.288',-0.690
'0:06.290',-0.670
'0:06.292',-0.910
'0:06.294',-0.800
'0:06.296',-0.910
'0:06.298',-1.020
'0:06.300',-1.040
'0:06.302',-1.020
'0:06.304',-0.935
'0:06.306',-0.875
'0:06.308',-0.865
'0:06.310',-0.800
'0:06.312',-0.780
'0:06.314',-0.760
'0:06.316',-0.940
'0:06.318',-1.070
'0:06.320',-1.155
'0:06.322',-1.065
'0:06.324',-0.965
'0:06.326',-0.970
'0:06.328',-0.810
'0:06.330',-0.755
'0:06.332',-0.810
'0:06.334',-0.770
'0:06.336',-0.865
'0:06.338',-1.010
'0:06.340',-1.025
'0:06.342',-1.000
'0:06.344',-1.035
'0:06.346',-0.950
'0:06.348',-0.845
'0:06.350',-0.740
'0:06.352',-0.755
'0:06.354',-0.745
'0:06.356',-0.900
'0:06.358',-1.040
'0:06.360',-1.120
'0:06.362',-1.105
'0:06.364',-1.045
'0:06.366',-0.925
'0:06.368',-0.830
'0:06.370',-0.755
'0:06.372',-0.750
'0:06.374',-0.830
'0:06.376',-0.915
'0:06.378',-1.020
'0:06.380',-1.075
'0:06.382',-0.975
'0:06.384',-0.935
'0:06.386',-1.010
'0:06.388',-0.820
'0:06.390',-0.790
'0:06.392',-0.855
'0:06.394',-0.920
'0:06.396',-0.980
'0:06.398',-1.045
'0:06.400',-1.085
'0:06.402',-1.075
'0:06.404',-1.050
'0:06.406',-0.985
'0:06.408',-0.805
'0:06.410',-0.770
'0:06.412',-0.815
'0:06.414',-0.820
'0:06.416',-0.915
'0:06.418',-1.140
'0:06.420',-1.050
'0:06.422',-1.065
'0:06.424',-1.020
'0:06.426',-0.855
'0:06.428',-0.735
'0:06.430',-0.835
'0:06.432',-0.850
'0:06.434',-0.830
'0:06.436',-1.000
'0:06.438',-1.010
'0:06.440',-1.095
'0:06.442',-1.015
'0:06.444',-0.970
'0:06.446',-0.975
'0:06.448',-0.790
'0:06.450',-0.740
'0:06.452',-0.820
'0:06.454',-0.870
'0:06.456',-0.970
'0:06.458',-1.050
'0:06.460',-0.990
'0:06.462',-0.900
'0:06.464',-0.985
'0:06.466',-0.935
'0:06.468',-0.880
'0:06.470',-0.800
'0:06.472',-0.810
'0:06.474',-0.865
'0:06.476',-1.060
'0:06.478',-1.090
'0:06.480',-0.945
'0:06.482',-1.015
'0:06.484',-0.955
'0:06.486',-0.855
'0:06.488',-0.740
'0:06.490',-0.705
'0:06.492',-0.805
'0:06.494',-0.820
'0:06.496',-0.935
'0:06.498',-1.035
'0:06.500',-0.980
'0:06.502',-0.960
'0:06.504',-1.025
'0:06.506',-0.755
'0:06.508',-0.750
'0:06.510',-0.710
'0:06.512',-0.815
'0:06.514',-0.855
'0:06.516',-0.935
'0:06.518',-1.050
'0:06.520',-1.085
'0:06.522',-0.975
'0:06.524',-0.895
'0:06.526',-0.865
'0:06.528',-0.775
'0:06.530',-0.810
'0:06.532',-0.850
'0:06.534',-0.865
'0:06.536',-0.975
'0:06.538',-1.070
'0:06.540',-1.060
'0:06.542',-0.995
'0:06.544',-1.020
'0:06.546',-0.830
'0:06.548',-0.725
'0:06.550',-0.745
'0:06.552',-0.840
'0:06.554',-0.945
'0:06.556',-1.025
'0:06.558',-1.105
'0:06.560',-1.055
'0:06.562',-0.975
'0:06.564',-0.985
'0:06.566',-0.915
'0:06.568',-0.725
'0:06.570',-0.810
'0:06.572',-0.920
'0:06.574',-0.860
'0:06.576',-1.015
'0:06.578',-1.100
'0:06.580',-1.070
'0:06.582',-1.030
'0:06.584',-0.975
'0:06.586',-0.830
'0:06.588',-0.805
'0:06.590',-0.860
'0:06.592',-0.890
'0:06.594',-0.845
'0:06.596',-1.040
'0:06.598',-1.075
'0:06.600',-1.065
'0:06.602',-1.005
'0:06.604',-0.925
'0:06.606',-0.870
'0:06.608',-0.765
'0:06.610',-0.815
'0:06.612',-0.850
'0:06.614',-0.920
'0:06.616',-1.065
'0:06.618',-1.035
'0:06.620',-1.085
'0:06.622',-0.950
'0:06.624',-0.930
'0:06.626',-0.825
'0:06.628',-0.785
'0:06.630',-0.770
'0:06.632',-0.815
'0:06.634',-0.780
'0:06.636',-0.865
'0:06.638',-0.940
'0:06.640',-0.820
'0:06.642',-0.780
'0:06.644',-0.620
'0:06.646',-0.490
'0:06.648',-0.585
'0:06.650',-0.510
'0:06.652',-0.630
'0:06.654',-0.795
'0:06.656',-0.935
'0:06.658',-1.115
'0:06.660',-1.105
'0:06.662',-0.990
'0:06.664',-1.020
'0:06.666',-1.060
'0:06.668',-1.030
'0:06.670',-1.000
'0:06.672',-1.055
'0:06.674',-1.040
'0:06.676',-1.145
'0:06.678',-1.290
'0:06.680',-1.250
'0:06.682',-1.260
'0:06.684',-1.100
'0:06.686',-0.905
'0:06.688',-0.845
'0:06.690',-0.855
'0:06.692',-0.850
'0:06.694',-0.975
'0:06.696',-1.050
'0:06.698',-1.115
'0:06.700',-1.090
'0:06.702',-0.965
'0:06.704',-0.940
'0:06.706',-0.800
'0:06.708',-0.820
'0:06.710',-0.825
'0:06.712',-0.885
'0:06.714',-0.990
'0:06.716',-1.135
'0:06.718',-1.060
'0:06.720',-0.985
'0:06.722',-0.990
'0:06.724',-0.930
'0:06.726',-0.805
'0:06.728',-0.765
'0:06.730',-0.835
'0:06.732',-0.865
'0:06.734',-0.925
'0:06.736',-1.045
'0:06.738',-1.090
'0:06.740',-1.010
'0:06.742',-0.975
'0:06.744',-0.840
'0:06.746',-0.905
'0:06.748',-0.765
'0:06.750',-0.715
'0:06.752',-0.840
'0:06.754',-0.960
'0:06.756',-1.030
'0:06.758',-0.940
'0:06.760',-0.975
'0:06.762',-0.970
'0:06.764',-0.870
'0:06.766',-0.775
'0:06.768',-0.730
'0:06.770',-0.825
'0:06.772',-0.825
'0:06.774',-0.960
'0:06.776',-0.890
'0:06.778',-1.075
'0:06.780',-1.015
'0:06.782',-0.930
'0:06.784',-0.760
'0:06.786',-0.740
'0:06.788',-0.685
'0:06.790',-0.750
'0:06.792',-0.790
'0:06.794',-0.930
'0:06.796',-0.975
'0:06.798',-0.935
'0:06.800',-0.955
'0:06.802',-0.905
'0:06.804',-0.700
'0:06.806',-0.725
'0:06.808',-0.735
'0:06.810',-0.765
'0:06.812',-0.725
'0:06.814',-0.850
'0:06.816',-0.900
'0:06.818',-0.910
'0:06.820',-0.870
'0:06.822',-0.880
'0:06.824',-0.760
'0:06.826',-0.620
'0:06.828',-0.625
'0:06.830',-0.700
'0:06.832',-0.645
'0:06.834',-0.745
'0:06.836',-0.890
'0:06.838',-0.845
'0:06.840',-0.785
'0:06.842',-0.690
'0:06.844',-0.580
'0:06.846',-0.465
'0:06.848',-0.500
'0:06.850',-0.585
'0:06.852',-0.675
'0:06.854',-0.745
'0:06.856',-0.820
'0:06.858',-0.800
'0:06.860',-0.760
'0:06.862',-0.715
'0:06.864',-0.535
'0:06.866',-0.460
'0:06.868',-0.450
'0:06.870',-0.545
'0:06.872',-0.615
'0:06.874',-0.795
'0:06.876',-0.865
'0:06.878',-0.785
'0:06.880',-0.715
'0:06.882',-0.695
'0:06.884',-0.600
'0:06.886',-0.495
'0:06.888',-0.535
'0:06.890',-0.625
'0:06.892',-0.745
'0:06.894',-0.855
'0:06.896',-0.885
'0:06.898',-0.900
'0:06.900',-0.840
'0:06.902',-0.760
'0:06.904',-0.660
'0:06.906',-0.595
'0:06.908',-0.630
'0:06.910',-0.800
'0:06.912',-0.770
'0:06.914',-0.890
'0:06.916',-0.985
'0:06.918',-0.990
'0:06.920',-0.895
'0:06.922',-0.860
'0:06.924',-0.715
'0:06.926',-0.755
'0:06.928',-0.785
'0:06.930',-0.865
'0:06.932',-0.865
'0:06.934',-0.915
'0:06.936',-1.030
'0:06.938',-0.995
'0:06.940',-0.955
'0:06.942',-0.890
'0:06.944',-0.870
'0:06.946',-0.795
'0:06.948',-0.785
'0:06.950',-0.760
'0:06.952',-0.925
'0:06.954',-1.060
'0:06.956',-1.025
'0:06.958',-1.015
'0:06.960',-0.985
'0:06.962',-0.875
'0:06.964',-0.840
'0:06.966',-0.715
'0:06.968',-0.735
'0:06.970',-0.825
'0:06.972',-0.965
'0:06.974',-1.000
'0:06.976',-1.095
'0:06.978',-1.045
'0:06.980',-0.975
'0:06.982',-0.945
'0:06.984',-0.740
'0:06.986',-0.705
'0:06.988',-0.800
'0:06.990',-0.840
'0:06.992',-0.915
'0:06.994',-0.920
'0:06.996',-1.040
'0:06.998',-0.990
'0:07.000',-0.920
'0:07.002',-0.880
'0:07.004',-0.730
'0:07.006',-0.815
'0:07.008',-0.855
'0:07.010',-0.840
'0:07.012',-0.945
'0:07.014',-1.060
'0:07.016',-1.075
'0:07.018',-1.035
'0:07.020',-0.935
'0:07.022',-0.835
'0:07.024',-0.800
'0:07.026',-0.775
'0:07.028',-0.760
'0:07.030',-0.880
'0:07.032',-0.910
'0:07.034',-1.010
'0:07.036',-1.060
'0:07.038',-0.995
'0:07.040',-0.975
'0:07.042',-0.860
'0:07.044',-0.740
'0:07.046',-0.675
'0:07.048',-0.825
'0:07.050',-0.900
'0:07.052',-0.935
'0:07.054',-1.165
'0:07.056',-1.030
'0:07.058',-0.995
'0:07.060',-0.955
'0:07.062',-0.815
'0:07.064',-0.810
'0:07.066',-0.720
'0:07.068',-0.810
'0:07.070',-0.825
'0:07.072',-0.960
'0:07.074',-1.060
'0:07.076',-1.050
'0:07.078',-1.035
'0:07.080',-0.925
'0:07.082',-0.845
'0:07.084',-0.860
'0:07.086',-0.830
'0:07.088',-0.810
'0:07.090',-0.845
'0:07.092',-0.940
'0:07.094',-1.060
'0:07.096',-1.050
'0:07.098',-1.030
'0:07.100',-0.930
'0:07.102',-0.800
'0:07.104',-0.825
'0:07.106',-0.815
'0:07.108',-0.870
'0:07.110',-0.850
'0:07.112',-1.010
'0:07.114',-1.130
'0:07.116',-1.035
'0:07.118',-1.020
'0:07.120',-0.930
'0:07.122',-0.875
'0:07.124',-0.720
'0:07.126',-0.760
'0:07.128',-0.835
'0:07.130',-0.875
'0:07.132',-1.040
'0:07.134',-1.085
'0:07.136',-1.130
'0:07.138',-1.030
'0:07.140',-0.940
'0:07.142',-0.840
'0:07.144',-0.765
'0:07.146',-0.850
'0:07.148',-0.830
'0:07.150',-0.915
'0:07.152',-1.085
'0:07.154',-1.160
'0:07.156',-1.120
'0:07.158',-0.920
'0:07.160',-0.970
'0:07.162',-0.860
'0:07.164',-0.765
'0:07.166',-0.765
'0:07.168',-0.830
'0:07.170',-0.905
'0:07.172',-0.970
'0:07.174',-1.100
'0:07.176',-1.055
'0:07.178',-1.050
'0:07.180',-0.965
'0:07.182',-0.855
'0:07.184',-0.795
'0:07.186',-0.860
'0:07.188',-0.890
'0:07.190',-0.855
'0:07.192',-1.085
'0:07.194',-1.070
'0:07.196',-1.030
'0:07.198',-0.935
'0:07.200',-0.975
'0:07.202',-0.855
'0:07.204',-0.760
'0:07.206',-0.775
'0:07.208',-0.805
'0:07.210',-0.910
'0:07.212',-0.995
'0:07.214',-1.065
'0:07.216',-1.065
'0:07.218',-0.985
'0:07.220',-0.875
'0:07.222',-0.790
'0:07.224',-0.720
'0:07.226',-0.685
'0:07.228',-0.930
'0:07.230',-0.905
'0:07.232',-1.010
'0:07.234',-1.140
'0:07.236',-1.105
'0:07.238',-0.810
'0:07.240',-0.895
'0:07.242',-0.820
'0:07.244',-0.775
'0:07.246',-0.780
'0:07.248',-0.780
'0:07.250',-0.915
'0:07.252',-1.015
'0:07.254',-1.095
'0:07.256',-1.070
'0:07.258',-0.980
'0:07.260',-0.905
'0:07.262',-0.805
'0:07.264',-0.865
'0:07.266',-0.855
'0:07.268',-0.870
'0:07.270',-1.115
'0:07.272',-1.120
'0:07.274',-1.065
'0:07.276',-0.960
'0:07.278',-1.005
'0:07.280',-0.915
'0:07.282',-0.760
'0:07.284',-0.780
'0:07.286',-0.900
'0:07.288',-0.900
'0:07.290',-0.920
'0:07.292',-1.055
'0:07.294',-1.120
'0:07.296',-1.070
'0:07.298',-1.025
'0:07.300',-0.930
'0:07.302',-0.860
'0:07.304',-0.780
'0:07.306',-0.900
'0:07.308',-0.900
'0:07.310',-1.005
'0:07.312',-1.110
'0:07.314',-1.125
'0:07.316',-1.110
'0:07.318',-1.025
'0:07.320',-0.895
'0:07.322',-0.790
'0:07.324',-0.745
'0:07.326',-0.940
'0:07.328',-1.010
'0:07.330',-0.935
'0:07.332',-1.035
'0:07.334',-1.090
'0:07.336',-1.130
'0:07.338',-1.060
'0:07.340',-0.905
'0:07.342',-0.860
'0:07.344',-0.830
'0:07.346',-0.785
'0:07.348',-0.965
'0:07.350',-1.025
'0:07.352',-1.035
'0:07.354',-1.090
'0:07.356',-1.035
'0:07.358',-1.030
'0:07.360',-0.970
'0:07.362',-0.780
'0:07.364',-0.685
'0:07.366',-0.735
'0:07.368',-0.750
'0:07.370',-0.830
'0:07.372',-0.915
'0:07.374',-0.760
'0:07.376',-0.670
'0:07.378',-0.635
'0:07.380',-0.475
'0:07.382',-0.450
'0:07.384',-0.480
'0:07.386',-0.500
'0:07.388',-0.615
'0:07.390',-0.930
'0:07.392',-1.105
'0:07.394',-1.040
'0:07.396',-1.040
'0:07.398',-1.080
'0:07.400',-1.045
'0:07.402',-0.955
'0:07.404',-0.905
'0:07.406',-1.065
'0:07.408',-1.115
'0:07.410',-1.290
'0:07.412',-1.350
'0:07.414',-1.300
'0:07.416',-1.295
'0:07.418',-1.025
'0:07.420',-0.855
'0:07.422',-0.955
'0:07.424',-0.900
'0:07.426',-0.815
'0:07.428',-0.920
'0:07.430',-1.020
'0:07.432',-1.040
'0:07.434',-1.085
'0:07.436',-1.020
'0:07.438',-1.000
'0:07.440',-0.865
'0:07.442',-0.825
'0:07.444',-0.850
'0:07.446',-0.910
'0:07.448',-0.905
'0:07.450',-1.055
'0:07.452',-1.050
'0:07.454',-1.070
'0:07.456',-0.995
'0:07.458',-1.020
'0:07.460',-0.860
'0:07.462',-0.800
'0:07.464',-0.825
'0:07.466',-0.845
'0:07.468',-0.910
'0:07.470',-1.025
'0:07.472',-1.050
'0:07.474',-1.095
'0:07.476',-1.095
'0:07.478',-0.925
'0:07.480',-0.800
'0:07.482',-0.790
'0:07.484',-0.835
'0:07.486',-0.875
'0:07.488',-0.905
'0:07.490',-1.075
'0:07.492',-1.200
'0:07.494',-1.040
'0:07.496',-0.975
'0:07.498',-0.995
'0:07.500',-0.865
'0:07.502',-0.805
'0:07.504',-0.775
'0:07.506',-0.860
'0:07.508',-0.965
'0:07.510',-1.020
'0:07.512',-1.045
'0:07.514',-1.045
'0:07.516',-1.020
'0:07.518',-0.930
'0:07.520',-0.835
'0:07.522',-0.815
'0:07.524',-0.785
'0:07.526',-0.705
'0:07.528',-0.980
'0:07.530',-1.050
'0:07.532',-1.075
'0:07.534',-1.120
'0:07.536',-0.955
'0:07.538',-0.870
'0:07.540',-0.820
'0:07.542',-0.775
'0:07.544',-0.775
'0:07.546',-0.795
'0:07.548',-0.890
'0:07.550',-0.940
'0:07.552',-1.015
'0:07.554',-0.970
'0:07.556',-0.885
'0:07.558',-0.785
'0:07.560',-0.695
'0:07.562',-0.745
'0:07.564',-0.670
'0:07.566',-0.650
'0:07.568',-0.875
'0:07.570',-0.935
'0:07.572',-0.895
'0:07.574',-0.840
'0:07.576',-0.875
'0:07.578',-0.740
'0:07.580',-0.540
'0:07.582',-0.595
'0:07.584',-0.575
'0:07.586',-0.655
'0:07.588',-0.725
'0:07.590',-0.880
'0:07.592',-0.825
'0:07.594',-0.800
'0:07.596',-0.875
'0:07.598',-0.695
'0:07.600',-0.550
'0:07.602',-0.510
'0:07.604',-0.565
'0:07.606',-0.675
'0:07.608',-0.820
'0:07.610',-0.830
'0:07.612',-0.870
'0:07.614',-0.725
'0:07.616',-0.755
'0:07.618',-0.725
'0:07.620',-0.670
'0:07.622',-0.610
'0:07.624',-0.620
'0:07.626',-0.710
'0:07.628',-0.790
'0:07.630',-0.830
'0:07.632',-1.045
'0:07.634',-0.900
'0:07.636',-0.775
'0:07.638',-0.750
'0:07.640',-0.705
'0:07.642',-0.685
'0:07.644',-0.755
'0:07.646',-0.785
'0:07.648',-0.910
'0:07.650',-1.005
'0:07.652',-1.020
'0:07.654',-0.980
'0:07.656',-1.085
'0:07.658',-0.905
'0:07.660',-0.810
'0:07.662',-0.805
'0:07.664',-0.880
'0:07.666',-0.855
'0:07.668',-0.960
'0:07.670',-1.075
'0:07.672',-1.080
'0:07.674',-1.035
'0:07.676',-0.945
'0:07.678',-0.920
'0:07.680',-0.815
'0:07.682',-0.955
'0:07.684',-0.845
'0:07.686',-0.830
'0:07.688',-1.005
'0:07.690',-1.195
'0:07.692',-1.175
'0:07.694',-1.150
'0:07.696',-0.980
'0:07.698',-0.915
'0:07.700',-0.820
'0:07.702',-0.805
'0:07.704',-0.885
'0:07.706',-0.930
'0:07.708',-1.025
'0:07.710',-1.085
'0:07.712',-1.125
'0:07.714',-1.065
'0:07.716',-1.020
'0:07.718',-0.925
'0:07.720',-0.845
'0:07.722',-0.790
'0:07.724',-0.845
'0:07.726',-0.885
'0:07.728',-1.105
'0:07.730',-1.115
'0:07.732',-1.145
'0:07.734',-1.125
'0:07.736',-0.975
'0:07.738',-0.870
'0:07.740',-0.835
'0:07.742',-0.800
'0:07.744',-0.835
'0:07.746',-0.970
'0:07.748',-0.965
'0:07.750',-1.150
'0:07.752',-1.105
'0:07.754',-1.040
'0:07.756',-1.060
'0:07.758',-0.875
'0:07.760',-0.855
'0:07.762',-0.820
'0:07.764',-0.840
'0:07.766',-0.990
'0:07.768',-1.165
'0:07.770',-1.175
'0:07.772',-1.035
'0:07.774',-1.055
'0:07.776',-0.985
'0:07.778',-0.820
'0:07.780',-0.735
'0:07.782',-0.855
'0:07.784',-0.905
'0:07.786',-1.000
'0:07.788',-1.055
'0:07.790',-1.100
'0:07.792',-1.085
'0:07.794',-1.135
'0:07.796',-1.050
'0:07.798',-0.825
'0:07.800',-0.805
'0:07.802',-0.825
'0:07.804',-0.925
'0:07.806',-0.985
'0:07.808',-1.025
'0:07.810',-1.085
'0:07.812',-1.125
'0:07.814',-1.115
'0:07.816',-0.995
'0:07.818',-0.875
'0:07.820',-0.870
'0:07.822',-0.870
'0:07.824',-0.860
'0:07.826',-1.025
'0:07.828',-1.120
'0:07.830',-1.125
'0:07.832',-1.140
'0:07.834',-1.095
'0:07.836',-0.940
'0:07.838',-0.925
'0:07.840',-0.850
'0:07.842',-0.875
'0:07.844',-0.920
'0:07.846',-1.040
'0:07.848',-1.125
'0:07.850',-1.145
'0:07.852',-1.115
'0:07.854',-1.100
'0:07.856',-0.990
'0:07.858',-0.910
'0:07.860',-0.950
'0:07.862',-0.925
'0:07.864',-0.940
'0:07.866',-1.040
'0:07.868',-1.120
'0:07.870',-1.150
'0:07.872',-1.130
'0:07.874',-1.090
'0:07.876',-1.040
'0:07.878',-0.930
'0:07.880',-0.895
'0:07.882',-0.885
'0:07.884',-0.955
'0:07.886',-1.070
'0:07.888',-1.110
'0:07.890',-1.205
'0:07.892',-1.130
'0:07.894',-1.030
'0:07.896',-1.000
'0:07.898',-0.935
'0:07.900',-0.910
'0:07.902',-0.905
'0:07.904',-0.965
'0:07.906',-1.080
'0:07.908',-1.145
'0:07.910',-1.155
'0:07.912',-1.115
'0:07.914',-1.135
'0:07.916',-1.080
'0:07.918',-0.860
'0:07.920',-0.925
'0:07.922',-1.035
'0:07.924',-0.945
'0:07.926',-1.075
'0:07.928',-1.215
'0:07.930',-1.130
'0:07.932',-1.155
'0:07.934',-1.125
'0:07.936',-0.995
'0:07.938',-0.940
'0:07.940',-0.900
'0:07.942',-0.985
'0:07.944',-1.010
'0:07.946',-1.110
'0:07.948',-1.120
'0:07.950',-1.215
'0:07.952',-1.175
'0:07.954',-1.105
'0:07.956',-0.990
'0:07.958',-1.015
'0:07.960',-0.915
'0:07.962',-0.865
'0:07.964',-0.970
'0:07.966',-1.075
'0:07.968',-1.220
'0:07.970',-1.180
'0:07.972',-1.210
'0:07.974',-1.050
'0:07.976',-0.975
'0:07.978',-1.065
'0:07.980',-0.910
'0:07.982',-0.935
'0:07.984',-1.040
'0:07.986',-1.100
'0:07.988',-1.235
'0:07.990',-1.200
'0:07.992',-1.060
'0:07.994',-1.100
'0:07.996',-0.930
'0:07.998',-0.845
'0:08.000',-0.895
'0:08.002',-0.940
'0:08.004',-0.985
'0:08.006',-1.160
'0:08.008',-1.175
'0:08.010',-1.145
'0:08.012',-1.185
'0:08.014',-1.005
'0:08.016',-0.885
'0:08.018',-0.880
'0:08.020',-0.845
'0:08.022',-0.925
'0:08.024',-0.950
'0:08.026',-1.030
'0:08.028',-1.140
'0:08.030',-1.200
'0:08.032',-1.150
'0:08.034',-1.105
'0:08.036',-0.955
'0:08.038',-0.935
'0:08.040',-0.930
'0:08.042',-1.035
'0:08.044',-1.085
'0:08.046',-1.140
'0:08.048',-1.275
'0:08.050',-1.225
'0:08.052',-1.135
'0:08.054',-1.010
'0:08.056',-1.015
'0:08.058',-0.985
'0:08.060',-0.960
'0:08.062',-1.080
'0:08.064',-1.085
'0:08.066',-1.165
'0:08.068',-1.255
'0:08.070',-1.205
'0:08.072',-1.165
'0:08.074',-1.090
'0:08.076',-1.090
'0:08.078',-0.965
'0:08.080',-0.940
'0:08.082',-1.020
'0:08.084',-1.060
'0:08.086',-1.210
'0:08.088',-1.255
'0:08.090',-1.205
'0:08.092',-1.150
'0:08.094',-1.115
'0:08.096',-1.000
'0:08.098',-0.995
'0:08.100',-1.040
'0:08.102',-0.975
'0:08.104',-1.175
'0:08.106',-1.240
'0:08.108',-1.245
'0:08.110',-1.260
'0:08.112',-1.205
'0:08.114',-1.080
'0:08.116',-0.945
'0:08.118',-0.895
'0:08.120',-1.000
'0:08.122',-1.015
'0:08.124',-1.255
'0:08.126',-1.275
'0:08.128',-1.250
'0:08.130',-1.200
'0:08.132',-1.210
'0:08.134',-1.040
'0:08.136',-1.025
'0:08.138',-1.025
'0:08.140',-0.935
'0:08.142',-0.970
'0:08.144',-1.045
'0:08.146',-1.065
'0:08.148',-1.085
'0:08.150',-1.060
'0:08.152',-0.910
'0:08.154',-0.710
'0:08.156',-0.555
'0:08.158',-0.540
'0:08.160',-0.565
'0:08.162',-0.705
'0:08.164',-0.795
'0:08.166',-0.975
'0:08.168',-1.125
'0:08.170',-1.125
'0:08.172',-1.010
'0:08.174',-1.055
'0:08.176',-1.050
'0:08.178',-1.090
'0:08.180',-1.175
'0:08.182',-1.285
'0:08.184',-1.340
'0:08.186',-1.460
'0:08.188',-1.520
'0:08.190',-1.480
'0:08.192',-1.385
'0:08.194',-1.280
'0:08.196',-1.135
'0:08.198',-1.010
'0:08.200',-1.165
'0:08.202',-1.140
'0:08.204',-1.180
'0:08.206',-1.230
'0:08.208',-1.295
'0:08.210',-1.210
'0:08.212',-1.285
'0:08.214',-1.065
'0:08.216',-0.935
'0:08.218',-1.040
'0:08.220',-1.035
'0:08.222',-1.130
'0:08.224',-1.215
'0:08.226',-1.230
'0:08.228',-1.210
'0:08.230',-1.160
'0:08.232',-1.210
'0:08.234',-1.030
'0:08.236',-0.975
'0:08.238',-1.055
'0:08.240',-0.965
'0:08.242',-1.070
'0:08.244',-1.170
'0:08.246',-1.265
'0:08.248',-1.260
'0:08.250',-1.145
'0:08.252',-1.195
'0:08.254',-1.090
'0:08.256',-0.930
'0:08.258',-1.020
'0:08.260',-0.940
'0:08.262',-1.055
'0:08.264',-1.120
'0:08.266',-1.200
'0:08.268',-1.145
'0:08.270',-1.245
'0:08.272',-1.115
'0:08.274',-1.105
'0:08.276',-0.985
'0:08.278',-0.950
'0:08.280',-1.045
'0:08.282',-1.000
'0:08.284',-1.190
'0:08.286',-1.225
'0:08.288',-1.245
'0:08.290',-1.125
'0:08.292',-1.030
'0:08.294',-1.040
'0:08.296',-1.010
'0:08.298',-0.895
'0:08.300',-0.985
'0:08.302',-1.045
'0:08.304',-1.160
'0:08.306',-1.210
'0:08.308',-1.180
'0:08.310',-1.180
'0:08.312',-1.040
'0:08.314',-1.050
'0:08.316',-0.905
'0:08.318',-0.930
'0:08.320',-0.925
'0:08.322',-1.015
'0:08.324',-1.125
'0:08.326',-1.145
'0:08.328',-1.165
'0:08.330',-1.120
'0:08.332',-0.985
'0:08.334',-0.875
'0:08.336',-0.830
'0:08.338',-0.900
'0:08.340',-1.040
'0:08.342',-0.885
'0:08.344',-1.020
'0:08.346',-1.135
'0:08.348',-0.985
'0:08.350',-0.975
'0:08.352',-0.915
'0:08.354',-0.840
'0:08.356',-0.765
'0:08.358',-0.795
'0:08.360',-0.745
'0:08.362',-0.725
'0:08.364',-0.925
'0:08.366',-0.995
'0:08.368',-0.945
'0:08.370',-0.845
'0:08.372',-0.885
'0:08.374',-0.725
'0:08.376',-0.610
'0:08.378',-0.645
'0:08.380',-0.650
'0:08.382',-0.865
'0:08.384',-0.905
'0:08.386',-0.990
'0:08.388',-0.920
'0:08.390',-0.900
'0:08.392',-0.820
'0:08.394',-0.710
'0:08.396',-0.690
'0:08.398',-0.765
'0:08.400',-0.835
'0:08.402',-0.905
'0:08.404',-1.055
'0:08.406',-1.005
'0:08.408',-1.010
'0:08.410',-0.985
'0:08.412',-0.880
'0:08.414',-0.770
'0:08.416',-0.835
'0:08.418',-0.800
'0:08.420',-0.875
'0:08.422',-0.995
'0:08.424',-1.070
'0:08.426',-1.165
'0:08.428',-1.085
'0:08.430',-1.135
'0:08.432',-1.025
'0:08.434',-0.860
'0:08.436',-0.880
'0:08.438',-0.970
'0:08.440',-1.025
'0:08.442',-1.050
'0:08.444',-1.210
'0:08.446',-1.240
'0:08.448',-1.135
'0:08.450',-1.095
'0:08.452',-1.040
'0:08.454',-0.915
'0:08.456',-0.975
'0:08.458',-1.025
'0:08.460',-1.065
'0:08.462',-1.150
'0:08.464',-1.255
'0:08.466',-1.295
'0:08.468',-1.220
'0:08.470',-1.235
'0:08.472',-1.085
'0:08.474',-0.935
'0:08.476',-0.935
'0:08.478',-0.995
'0:08.480',-1.080
'0:08.482',-1.150
'0:08.484',-1.275
'0:08.486',-1.265
'0:08.488',-1.225
'0:08.490',-1.180
'0:08.492',-0.980
'0:08.494',-1.000
'0:08.496',-1.040
'0:08.498',-1.020
'0:08.500',-1.080
'0:08.502',-1.120
'0:08.504',-1.220
'0:08.506',-1.300
'0:08.508',-1.090
'0:08.510',-1.145
'0:08.512',-1.110
'0:08.514',-0.970
'0:08.516',-0.990
'0:08.518',-1.025
'0:08.520',-1.025
'0:08.522',-1.175
'0:08.524',-1.285
'0:08.526',-1.180
'0:08.528',-1.220
'0:08.530',-1.155
'0:08.532',-1.080
'0:08.534',-0.945
'0:08.536',-0.990
'0:08.538',-1.015
'0:08.540',-1.080
'0:08.542',-1.110
'0:08.544',-1.235
'0:08.546',-1.275
'0:08.548',-1.235
'0:08.550',-1.150
'0:08.552',-1.080
'0:08.554',-0.970
'0:08.556',-1.000
'0:08.558',-1.100
'0:08.560',-1.140
'0:08.562',-1.120
'0:08.564',-1.170
'0:08.566',-1.205
'0:08.568',-1.210
'0:08.570',-1.105
'0:08.572',-1.055
'0:08.574',-1.040
'0:08.576',-1.000
'0:08.578',-1.075
'0:08.580',-0.985
'0:08.582',-1.160
'0:08.584',-1.280
'0:08.586',-1.230
'0:08.588',-1.170
'0:08.590',-1.090
'0:08.592',-1.095
'0:08.594',-1.050
'0:08.596',-0.965
'0:08.598',-0.935
'0:08.600',-1.000
'0:08.602',-1.195
'0:08.604',-1.295
'0:08.606',-1.220
'0:08.608',-1.220
'0:08.610',-1.105
'0:08.612',-0.970
'0:08.614',-0.945
'0:08.616',-0.985
'0:08.618',-1.045
'0:08.620',-1.105
'0:08.622',-1.225
'0:08.624',-1.220
'0:08.626',-1.220
'0:08.628',-1.295
'0:08.630',-1.120
'0:08.632',-1.015
'0:08.634',-0.955
'0:08.636',-0.985
'0:08.638',-1.050
'0:08.640',-1.150
'0:08.642',-1.215
'0:08.644',-1.260
'0:08.646',-1.155
'0:08.648',-1.230
'0:08.650',-1.165
'0:08.652',-1.000
'0:08.654',-0.970
'0:08.656',-0.925
'0:08.658',-1.005
'0:08.660',-1.145
'0:08.662',-1.250
'0:08.664',-1.255
'0:08.666',-1.205
'0:08.668',-1.230
'0:08.670',-1.125
'0:08.672',-1.075
'0:08.674',-1.005
'0:08.676',-1.095
'0:08.678',-1.030
'0:08.680',-1.140
'0:08.682',-1.210
'0:08.684',-1.175
'0:08.686',-1.245
'0:08.688',-1.210
'0:08.690',-1.120
'0:08.692',-0.870
'0:08.694',-0.945
'0:08.696',-0.975
'0:08.698',-1.030
'0:08.700',-1.155
'0:08.702',-1.270
'0:08.704',-1.265
'0:08.706',-1.235
'0:08.708',-1.215
'0:08.710',-1.160
'0:08.712',-1.045
'0:08.714',-0.925
'0:08.716',-1.055
'0:08.718',-0.935
'0:08.720',-1.135
'0:08.722',-1.235
'0:08.724',-1.285
'0:08.726',-1.225
'0:08.728',-1.175
'0:08.730',-1.045
'0:08.732',-1.095
'0:08.734',-0.940
'0:08.736',-1.015
'0:08.738',-1.120
'0:08.740',-1.220
'0:08.742',-1.195
'0:08.744',-1.255
'0:08.746',-1.205
'0:08.748',-1.245
'0:08.750',-1.030
'0:08.752',-0.950
'0:08.754',-0.945
'0:08.756',-0.980
'0:08.758',-1.135
'0:08.760',-1.170
'0:08.762',-1.225
'0:08.764',-1.260
'0:08.766',-1.195
'0:08.768',-1.200
'0:08.770',-1.000
'0:08.772',-1.030
'0:08.774',-1.030
'0:08.776',-1.010
'0:08.778',-0.990
'0:08.780',-1.135
'0:08.782',-1.280
'0:08.784',-1.250
'0:08.786',-1.150
'0:08.788',-1.185
'0:08.790',-1.245
'0:08.792',-0.900
'0:08.794',-0.920
'0:08.796',-0.975
'0:08.798',-1.080
'0:08.800',-1.170
'0:08.802',-1.185
'0:08.804',-1.255
'0:08.806',-1.215
'0:08.808',-1.075
'0:08.810',-1.070
'0:08.812',-0.950
'0:08.814',-1.025
'0:08.816',-0.940
'0:08.818',-0.975
'0:08.820',-1.135
'0:08.822',-1.205
'0:08.824',-1.160
'0:08.826',-1.080
'0:08.828',-1.100
'0:08.830',-1.030
'0:08.832',-0.900
'0:08.834',-0.875
'0:08.836',-0.980
'0:08.838',-0.945
'0:08.840',-1.160
'0:08.842',-1.155
'0:08.844',-1.160
'0:08.846',-1.125
'0:08.848',-1.120
'0:08.850',-0.985
'0:08.852',-0.885
'0:08.854',-0.870
'0:08.856',-0.945
'0:08.858',-1.020
'0:08.860',-1.095
'0:08.862',-1.200
'0:08.864',-1.240
'0:08.866',-1.165
'0:08.868',-1.065
'0:08.870',-0.930
'0:08.872',-0.910
'0:08.874',-0.835
'0:08.876',-1.080
'0:08.878',-1.100
'0:08.880',-1.200
'0:08.882',-1.255
'0:08.884',-1.245
'0:08.886',-1.160
'0:08.888',-1.075
'0:08.890',-1.035
'0:08.892',-0.945
'0:08.894',-0.985
'0:08.896',-1.040
'0:08.898',-1.175
'0:08.900',-1.230
'0:08.902',-1.080
'0:08.904',-1.180
'0:08.906',-1.185
'0:08.908',-1.155
'0:08.910',-0.990
'0:08.912',-0.870
'0:08.914',-1.030
'0:08.916',-0.940
'0:08.918',-1.105
'0:08.920',-1.190
'0:08.922',-1.185
'0:08.924',-1.205
'0:08.926',-1.240
'0:08.928',-1.045
'0:08.930',-0.875
'0:08.932',-0.900
'0:08.934',-0.985
'0:08.936',-0.925
'0:08.938',-1.065
'0:08.940',-1.280
'0:08.942',-1.305
'0:08.944',-1.150
'0:08.946',-1.175
'0:08.948',-1.055
'0:08.950',-0.970
'0:08.952',-0.870
'0:08.954',-0.945
'0:08.956',-1.055
'0:08.958',-1.135
'0:08.960',-1.145
'0:08.962',-1.195
'0:08.964',-1.090
'0:08.966',-1.120
'0:08.968',-1.100
'0:08.970',-1.040
'0:08.972',-0.900
'0:08.974',-0.920
'0:08.976',-0.850
'0:08.978',-0.875
'0:08.980',-0.930
'0:08.982',-1.000
'0:08.984',-0.875
'0:08.986',-0.705
'0:08.988',-0.695
'0:08.990',-0.525
'0:08.992',-0.375
'0:08.994',-0.530
'0:08.996',-0.750
'0:08.998',-0.925
'0:09.000',-1.080
'0:09.002',-1.160
'0:09.004',-1.135
'0:09.006',-1.215
'0:09.008',-1.140
'0:09.010',-1.135
'0:09.012',-1.155
'0:09.014',-1.205
'0:09.016',-1.190
'0:09.018',-1.270
'0:09.020',-1.275
'0:09.022',-1.345
'0:09.024',-1.285
'0:09.026',-1.260
'0:09.028',-1.140
'0:09.030',-1.090
'0:09.032',-0.970
'0:09.034',-1.040
'0:09.036',-0.955
'0:09.038',-1.080
'0:09.040',-1.200
'0:09.042',-1.290
'0:09.044',-1.160
'0:09.046',-1.065
'0:09.048',-0.955
'0:09.050',-0.925
'0:09.052',-0.860
'0:09.054',-0.960
'0:09.056',-0.980
'0:09.058',-1.120
'0:09.060',-1.165
'0:09.062',-1.240
'0:09.064',-1.075
'0:09.066',-0.965
'0:09.068',-1.035
'0:09.070',-0.870
'0:09.072',-0.885
'0:09.074',-1.085
'0:09.076',-0.910
'0:09.078',-1.075
'0:09.080',-1.045
'0:09.082',-1.225
'0:09.084',-1.045
'0:09.086',-1.070
'0:09.088',-0.925
'0:09.090',-0.825
'0:09.092',-0.860
'0:09.094',-0.860
'0:09.096',-0.960
'0:09.098',-1.040
'0:09.100',-1.165
'0:09.102',-1.160
'0:09.104',-1.095
'0:09.106',-0.985
'0:09.108',-0.935
'0:09.110',-0.875
'0:09.112',-0.860
'0:09.114',-0.855
'0:09.116',-0.925
'0:09.118',-1.000
'0:09.120',-1.180
'0:09.122',-1.155
'0:09.124',-1.070
'0:09.126',-0.995
'0:09.128',-0.880
'0:09.130',-0.785
'0:09.132',-0.885
'0:09.134',-0.865
'0:09.136',-0.905
'0:09.138',-1.025
'0:09.140',-1.070
'0:09.142',-1.055
'0:09.144',-1.035
'0:09.146',-1.010
'0:09.148',-0.845
'0:09.150',-0.800
'0:09.152',-0.775
'0:09.154',-0.755
'0:09.156',-0.850
'0:09.158',-1.005
'0:09.160',-1.030
'0:09.162',-1.120
'0:09.164',-0.985
'0:09.166',-0.890
'0:09.168',-0.750
'0:09.170',-0.685
'0:09.172',-0.675
'0:09.174',-0.670
'0:09.176',-0.775
'0:09.178',-0.935
'0:09.180',-0.935
'0:09.182',-0.875
'0:09.184',-0.885
'0:09.186',-0.735
'0:09.188',-0.665
'0:09.190',-0.550
'0:09.192',-0.595
'0:09.194',-0.580
'0:09.196',-0.720
'0:09.198',-0.810
'0:09.200',-0.785
'0:09.202',-0.775
'0:09.204',-0.700
'0:09.206',-0.695
'0:09.208',-0.580
'0:09.210',-0.490
'0:09.212',-0.530
'0:09.214',-0.555
'0:09.216',-0.555
'0:09.218',-0.730
'0:09.220',-0.875
'0:09.222',-0.780
'0:09.224',-0.775
'0:09.226',-0.675
'0:09.228',-0.515
'0:09.230',-0.560
'0:09.232',-0.630
'0:09.234',-0.620
'0:09.236',-0.655
'0:09.238',-0.830
'0:09.240',-0.910
'0:09.242',-0.885
'0:09.244',-0.885
'0:09.246',-0.875
'0:09.248',-0.635
'0:09.250',-0.600
'0:09.252',-0.640
'0:09.254',-0.655
'0:09.256',-0.800
'0:09.258',-0.960
'0:09.260',-1.110
'0:09.262',-0.960
'0:09.264',-0.930
'0:09.266',-0.780
'0:09.268',-0.760
'0:09.270',-0.690
'0:09.272',-0.755
'0:09.274',-0.840
'0:09.276',-0.860
'0:09.278',-1.020
'0:09.280',-1.040
'0:09.282',-1.070
'0:09.284',-1.000
'0:09.286',-0.880
'0:09.288',-0.825
'0:09.290',-0.835
'0:09.292',-0.760
'0:09.294',-0.915
'0:09.296',-0.935
'0:09.298',-1.005
'0:09.300',-1.115
'0:09.302',-1.060
'0:09.304',-0.930
'0:09.306',-0.920
'0:09.308',-0.830
'0:09.310',-0.765
'0:09.312',-0.820
'0:09.314',-0.865
'0:09.316',-0.940
'0:09.318',-1.045
'0:09.320',-1.060
'0:09.322',-1.020
'0:09.324',-0.985
'0:09.326',-0.970
'0:09.328',-0.805
'0:09.330',-0.750
'0:09.332',-0.805
'0:09.334',-0.850
'0:09.336',-0.970
'0:09.338',-1.065
'0:09.340',-1.125
'0:09.342',-1.025
'0:09.344',-0.995
'0:09.346',-0.880
'0:09.348',-0.790
'0:09.350',-0.790
'0:09.352',-0.840
'0:09.354',-0.830
'0:09.356',-0.915
'0:09.358',-1.100
'0:09.360',-1.105
'0:09.362',-1.015
'0:09.364',-0.925
'0:09.366',-0.880
'0:09.368',-0.685
'0:09.370',-0.790
'0:09.372',-0.895
'0:09.374',-0.905
'0:09.376',-0.995
'0:09.378',-1.060
'0:09.380',-1.005
'0:09.382',-1.120
'0:09.384',-0.945
'0:09.386',-0.785
'0:09.388',-0.805
'0:09.390',-0.780
'0:09.392',-0.795
'0:09.394',-0.885
'0:09.396',-0.965
'0:09.398',-1.070
'0:09.400',-1.030
'0:09.402',-1.030
'0:09.404',-0.980
'0:09.406',-0.785
'0:09.408',-0.820
'0:09.410',-0.770
'0:09.412',-0.760
'0:09.414',-0.805
'0:09.416',-1.045
'0:09.418',-1.090
'0:09.420',-1.065
'0:09.422',-0.945
'0:09.424',-1.010
'0:09.426',-0.840
'0:09.428',-0.785
'0:09.430',-0.735
'0:09.432',-0.800
'0:09.434',-0.885
'0:09.436',-1.010
'0:09.438',-1.035
'0:09.440',-1.020
'0:09.442',-1.005
'0:09.444',-0.955
'0:09.446',-0.860
'0:09.448',-0.730
'0:09.450',-0.785
'0:09.452',-0.840
'0:09.454',-0.880
'0:09.456',-0.995
'0:09.458',-1.080
'0:09.460',-1.100
'0:09.462',-0.975
'0:09.464',-0.800
'0:09.466',-0.865
'0:09.468',-0.745
'0:09.470',-0.825
'0:09.472',-0.810
'0:09.474',-0.895
'0:09.476',-1.020
'0:09.478',-1.055
'0:09.480',-1.045
'0:09.482',-1.000
'0:09.484',-0.940
'0:09.486',-0.860
'0:09.488',-0.790
'0:09.490',-0.770
'0:09.492',-0.775
'0:09.494',-0.935
'0:09.496',-1.010
'0:09.498',-1.045
'0:09.500',-1.030
'0:09.502',-0.985
'0:09.504',-0.955
'0:09.506',-0.820
'0:09.508',-0.735
'0:09.510',-0.745
'0:09.512',-0.765
'0:09.514',-0.925
'0:09.516',-1.075
'0:09.518',-1.070
'0:09.520',-1.125
'0:09.522',-0.960
'0:09.524',-0.955
'0:09.526',-0.795
'0:09.528',-0.775
'0:09.530',-0.795
'0:09.532',-0.895
'0:09.534',-0.920
'0:09.536',-1.035
'0:09.538',-1.060
'0:09.540',-0.985
'0:09.542',-1.020
'0:09.544',-0.965
'0:09.546',-0.830
'0:09.548',-0.780
'0:09.550',-0.705
'0:09.552',-0.835
'0:09.554',-0.950
'0:09.556',-0.960
'0:09.558',-1.145
'0:09.560',-1.120
'0:09.562',-0.970
'0:09.564',-0.910
'0:09.566',-0.800
'0:09.568',-0.750
'0:09.570',-0.745
'0:09.572',-0.830
'0:09.574',-0.930
'0:09.576',-1.055
'0:09.578',-1.065
'0:09.580',-1.000
'0:09.582',-0.985
'0:09.584',-0.905
'0:09.586',-0.840
'0:09.588',-0.730
'0:09.590',-0.785
'0:09.592',-0.855
'0:09.594',-0.970
'0:09.596',-1.030
'0:09.598',-1.045
'0:09.600',-0.990
'0:09.602',-0.870
'0:09.604',-0.820
'0:09.606',-0.840
'0:09.608',-0.815
'0:09.610',-0.840
'0:09.612',-0.835
'0:09.614',-0.940
'0:09.616',-1.050
'0:09.618',-0.970
'0:09.620',-1.020
'0:09.622',-0.965
'0:09.624',-0.865
'0:09.626',-0.775
'0:09.628',-0.780
'0:09.630',-0.755
'0:09.632',-0.835
'0:09.634',-0.955
'0:09.636',-1.035
'0:09.638',-1.015
'0:09.640',-1.020
'0:09.642',-0.940
'0:09.644',-0.850
'0:09.646',-0.855
'0:09.648',-0.730
'0:09.650',-0.765
'0:09.652',-0.850
'0:09.654',-1.000
'0:09.656',-0.945
'0:09.658',-1.035
'0:09.660',-1.040
'0:09.662',-0.925
'0:09.664',-0.835
'0:09.666',-0.770
'0:09.668',-0.725
'0:09.670',-0.790
'0:09.672',-0.860
'0:09.674',-0.925
'0:09.676',-0.980
'0:09.678',-0.925
'0:09.680',-0.975
'0:09.682',-0.935
'0:09.684',-0.815
'0:09.686',-0.680
'0:09.688',-0.640
'0:09.690',-0.785
'0:09.692',-0.850
'0:09.694',-0.935
'0:09.696',-1.010
'0:09.698',-1.025
'0:09.700',-0.990
'0:09.702',-0.840
'0:09.704',-0.825
'0:09.706',-0.710
'0:09.708',-0.680
'0:09.710',-0.715
'0:09.712',-0.740
'0:09.714',-0.870
'0:09.716',-0.985
'0:09.718',-0.890
'0:09.720',-0.900
'0:09.722',-0.820
'0:09.724',-0.720
'0:09.726',-0.815
'0:09.728',-0.710
'0:09.730',-0.740
'0:09.732',-0.895
'0:09.734',-0.885
'0:09.736',-0.825
'0:09.738',-0.985
'0:09.740',-0.990
'0:09.742',-0.820
'0:09.744',-0.790
'0:09.746',-0.735
'0:09.748',-0.790
'0:09.750',-0.825
'0:09.752',-0.810
'0:09.754',-0.960
'0:09.756',-1.045
'0:09.758',-1.005
'0:09.760',-0.880
'0:09.762',-0.880
'0:09.764',-0.825
'0:09.766',-0.710
'0:09.768',-0.715
'0:09.770',-0.755
'0:09.772',-0.870
'0:09.774',-1.030
'0:09.776',-1.045
'0:09.778',-0.985
'0:09.780',-0.925
'0:09.782',-0.800
'0:09.784',-0.700
'0:09.786',-0.740
'0:09.788',-0.805
'0:09.790',-0.785
'0:09.792',-0.875
'0:09.794',-1.010
'0:09.796',-1.015
'0:09.798',-1.050
'0:09.800',-1.015
'0:09.802',-0.835
'0:09.804',-0.840
'0:09.806',-0.730
'0:09.808',-0.760
'0:09.810',-0.755
'0:09.812',-0.850
'0:09.814',-1.040
'0:09.816',-1.030
'0:09.818',-1.010
'0:09.820',-0.960
'0:09.822',-0.920
'0:09.824',-0.790
'0:09.826',-0.725
'0:09.828',-0.765
'0:09.830',-0.785
'0:09.832',-0.940
'0:09.834',-0.950
'0:09.836',-0.990
'0:09.838',-0.945
'0:09.840',-0.940
'0:09.842',-0.920
'0:09.844',-0.730
'0:09.846',-0.715
'0:09.848',-0.660
'0:09.850',-0.750
'0:09.852',-0.700
'0:09.854',-0.775
'0:09.856',-0.845
'0:09.858',-0.770
'0:09.860',-0.665
'0:09.862',-0.410
'0:09.864',-0.375
'0:09.866',-0.425
'0:09.868',-0.460
'0:09.870',-0.515
'0:09.872',-0.675
'0:09.874',-0.900
'0:09.876',-0.915
'0:09.878',-0.990
'0:09.880',-0.960
'0:09.882',-0.975
'0:09.884',-0.870
'0:09.886',-0.840
'0:09.888',-0.935
'0:09.890',-1.020
'0:09.892',-1.130
'0:09.894',-1.175
'0:09.896',-1.245
'0:09.898',-1.200
'0:09.900',-1.045
'0:09.902',-0.945
'0:09.904',-0.830
'0:09.906',-0.900
'0:09.908',-0.805
'0:09.910',-0.875
'0:09.912',-0.930
'0:09.914',-1.085
'0:09.916',-1.030
'0:09.918',-1.045
'0:09.920',-0.915
'0:09.922',-0.840
'0:09.924',-0.685
'0:09.926',-0.735
'0:09.928',-0.785
'0:09.930',-0.715
'0:09.932',-0.960
'0:09.934',-0.940
'0:09.936',-0.970
'0:09.938',-0.965
'0:09.940',-0.870
'0:09.942',-0.830
'0:09.944',-0.750
'0:09.946',-0.755
'0:09.948',-0.780
'0:09.950',-0.820
'0:09.952',-0.875
'0:09.954',-1.025
'0:09.956',-1.035
'0:09.958',-0.910
'0:09.960',-0.860
'0:09.962',-0.770
'0:09.964',-0.675
'0:09.966',-0.670
'0:09.968',-0.730
'0:09.970',-0.805
'0:09.972',-0.920
'0:09.974',-1.005
'0:09.976',-1.010
'0:09.978',-0.940
'0:09.980',-0.880
'0:09.982',-0.785
'0:09.984',-0.650
'0:09.986',-0.755
'0:09.988',-0.765
'0:09.990',-0.765
'0:09.992',-0.925
'0:09.994',-0.965
'0:09.996',-0.870
'0:09.998',-0.925
'0:10.000',-0.860
'0:10.002',-0.735
'0:10.004',-0.650
'0:10.006',-0.670
'0:10.008',-0.735
'0:10.010',-0.780
'0:10.012',-0.875
'0:10.014',-0.940
'0:10.016',-0.910
'0:10.018',-0.870
'0:10.020',-0.775
'0:10.022',-0.625
'0:10.024',-0.610
'0:10.026',-0.620
'0:10.028',-0.680
'0:10.030',-0.770
'0:10.032',-0.855
'0:10.034',-0.875
'0:10.036',-0.840
'0:10.038',-0.900
'0:10.040',-0.720
'0:10.042',-0.570
'0:10.044',-0.570
'0:10.046',-0.540
'0:10.048',-0.585
'0:10.050',-0.710
'0:10.052',-0.785
'0:10.054',-0.845
'0:10.056',-0.720
'0:10.058',-0.790
'0:10.060',-0.695
'0:10.062',-0.490
'0:10.064',-0.430
'0:10.066',-0.500
'0:10.068',-0.545
'0:10.070',-0.570
'0:10.072',-0.690
'0:10.074',-0.745
'0:10.076',-0.695
'0:10.078',-0.600
'0:10.080',-0.550
'0:10.082',-0.490
'0:10.084',-0.455
'0:10.086',-0.440
'0:10.088',-0.495
'0:10.090',-0.475
'0:10.092',-0.580
'0:10.094',-0.705
'0:10.096',-0.655
'0:10.098',-0.640
'0:10.100',-0.530
'0:10.102',-0.390
'0:10.104',-0.405
'0:10.106',-0.510
'0:10.108',-0.525
'0:10.110',-0.615
'0:10.112',-0.725
'0:10.114',-0.815
'0:10.116',-0.775
'0:10.118',-0.695
'0:10.120',-0.670
'0:10.122',-0.630
'0:10.124',-0.575
'0:10.126',-0.565
'0:10.128',-0.610
'0:10.130',-0.700
'0:10.132',-0.835
'0:10.134',-0.855
'0:10.136',-0.810
'0:10.138',-0.830
'0:10.140',-0.775
'0:10.142',-0.580
'0:10.144',-0.635
'0:10.146',-0.675
'0:10.148',-0.695
'0:10.150',-0.830
'0:10.152',-0.965
'0:10.154',-0.895
'0:10.156',-0.925
'0:10.158',-0.825
'0:10.160',-0.605
'0:10.162',-0.725
'0:10.164',-0.700
'0:10.166',-0.720
'0:10.168',-0.780
'0:10.170',-0.865
'0:10.172',-1.075
'0:10.174',-1.015
'0:10.176',-0.890
'0:10.178',-0.895
'0:10.180',-0.765
'0:10.182',-0.750
'0:10.184',-0.665
'0:10.186',-0.720
'0:10.188',-0.800
'0:10.190',-0.890
'0:10.192',-1.010
'0:10.194',-0.915
'0:10.196',-0.905
'0:10.198',-0.885
'0:10.200',-0.755
'0:10.202',-0.690
'0:10.204',-0.720
'0:10.206',-0.715
'0:10.208',-0.815
'0:10.210',-0.920
'0:10.212',-0.905
'0:10.214',-0.900
'0:10.216',-0.930
'0:10.218',-0.895
'0:10.220',-0.735
'0:10.222',-0.710
'0:10.224',-0.625
'0:10.226',-0.805
'0:10.228',-0.690
'0:10.230',-0.840
'0:10.232',-0.985
'0:10.234',-0.940
'0:10.236',-0.970
'0:10.238',-0.875
'0:10.240',-0.740
'0:10.242',-0.650
'0:10.244',-0.645
'0:10.246',-0.820
'0:10.248',-0.840
'0:10.250',-0.795
'0:10.252',-1.000
'0:10.254',-0.975
'0:10.256',-0.940
'0:10.258',-0.875
'0:10.260',-0.750
'0:10.262',-0.715
'0:10.264',-0.710
'0:10.266',-0.755
'0:10.268',-0.770
'0:10.270',-0.885
'0:10.272',-0.935
'0:10.274',-0.980
'0:10.276',-0.870
'0:10.278',-0.870
'0:10.280',-0.750
'0:10.282',-0.705
'0:10.284',-0.710
'0:10.286',-0.755
'0:10.288',-0.860
'0:10.290',-0.870
'0:10.292',-0.985
'0:10.294',-0.935
'0:10.296',-0.840
'0:10.298',-0.890
'0:10.300',-0.770
'0:10.302',-0.750
'0:10.304',-0.740
'0:10.306',-0.740
'0:10.308',-0.840
'0:10.310',-0.940
'0:10.312',-0.995
'0:10.314',-0.875
'0:10.316',-1.100
'0:10.318',-0.915
'0:10.320',-0.700
'0:10.322',-0.725
'0:10.324',-0.700
'0:10.326',-0.780
'0:10.328',-0.800
'0:10.330',-0.905
'0:10.332',-1.000
'0:10.334',-1.020
'0:10.336',-0.935
'0:10.338',-0.930
'0:10.340',-0.830
'0:10.342',-0.705
'0:10.344',-0.740
'0:10.346',-0.790
'0:10.348',-0.890
'0:10.350',-0.970
'0:10.352',-0.955
'0:10.354',-0.995
'0:10.356',-0.955
'0:10.358',-0.825
'0:10.360',-0.745
'0:10.362',-0.710
'0:10.364',-0.660
'0:10.366',-0.800
'0:10.368',-0.845
'0:10.370',-0.940
'0:10.372',-1.065
'0:10.374',-1.010
'0:10.376',-0.980
'0:10.378',-0.915
'0:10.380',-0.735
'0:10.382',-0.715
'0:10.384',-0.775
'0:10.386',-0.840
'0:10.388',-0.840
'0:10.390',-0.995
'0:10.392',-0.925
'0:10.394',-0.975
'0:10.396',-0.950
'0:10.398',-0.865
'0:10.400',-0.740
'0:10.402',-0.745
'0:10.404',-0.810
'0:10.406',-0.790
'0:10.408',-0.845
'0:10.410',-1.040
'0:10.412',-1.085
'0:10.414',-1.020
'0:10.416',-0.940
'0:10.418',-0.850
'0:10.420',-0.785
'0:10.422',-0.755
'0:10.424',-0.780
'0:10.426',-0.815
'0:10.428',-0.945
'0:10.430',-1.005
'0:10.432',-1.000
'0:10.434',-0.945
'0:10.436',-0.950
'0:10.438',-0.935
'0:10.440',-0.740
'0:10.442',-0.700
'0:10.444',-0.810
'0:10.446',-0.795
'0:10.448',-0.855
'0:10.450',-1.080
'0:10.452',-1.030
'0:10.454',-0.980
'0:10.456',-0.920
'0:10.458',-0.810
'0:10.460',-0.800
'0:10.462',-0.780
'0:10.464',-0.755
'0:10.466',-0.845
'0:10.468',-0.980
'0:10.470',-0.880
'0:10.472',-1.035
'0:10.474',-1.010
'0:10.476',-0.905
'0:10.478',-0.705
'0:10.480',-0.820
'0:10.482',-0.760
'0:10.484',-0.775
'0:10.486',-0.770
'0:10.488',-0.945
'0:10.490',-1.010
'0:10.492',-1.015
'0:10.494',-0.955
'0:10.496',-0.945
'0:10.498',-0.785
'0:10.500',-0.675
'0:10.502',-0.665
'0:10.504',-0.775
'0:10.506',-0.780
'0:10.508',-0.810
'0:10.510',-0.930
'0:10.512',-1.010
'0:10.514',-0.865
'0:10.516',-0.880
'0:10.518',-0.815
'0:10.520',-0.690
'0:10.522',-0.710
'0:10.524',-0.780
'0:10.526',-0.765
'0:10.528',-0.895
'0:10.530',-0.990
'0:10.532',-0.955
'0:10.534',-0.955
'0:10.536',-0.950
'0:10.538',-0.715
'0:10.540',-0.720
'0:10.542',-0.765
'0:10.544',-0.855
'0:10.546',-0.795
'0:10.548',-0.935
'0:10.550',-1.060
'0:10.552',-1.005
'0:10.554',-0.905
'0:10.556',-0.965
'0:10.558',-0.750
'0:10.560',-0.730
'0:10.562',-0.790
'0:10.564',-0.820
'0:10.566',-0.825
'0:10.568',-0.950
'0:10.570',-1.070
'0:10.572',-1.010
'0:10.574',-0.960
'0:10.576',-0.890
'0:10.578',-0.790
'0:10.580',-0.835
'0:10.582',-0.765
'0:10.584',-0.830
'0:10.586',-0.880
'0:10.588',-0.985
'0:10.590',-1.005
'0:10.592',-1.035
'0:10.594',-1.010
'0:10.596',-0.925
'0:10.598',-0.820
'0:10.600',-0.820
'0:10.602',-0.740
'0:10.604',-0.745
'0:10.606',-0.935
'0:10.608',-1.055
'0:10.610',-1.015
'0:10.612',-1.040
'0:10.614',-1.045
'0:10.616',-0.855
'0:10.618',-0.780
'0:10.620',-0.725
'0:10.622',-0.810
'0:10.624',-0.805
'0:10.626',-0.935
'0:10.628',-0.935
'0:10.630',-0.950
'0:10.632',-1.015
'0:10.634',-1.055
'0:10.636',-0.970
'0:10.638',-0.810
'0:10.640',-0.815
'0:10.642',-0.705
'0:10.644',-0.800
'0:10.646',-0.860
'0:10.648',-0.830
'0:10.650',-0.870
'0:10.652',-0.940
'0:10.654',-0.830
'0:10.656',-0.655
'0:10.658',-0.550
'0:10.660',-0.370
'0:10.662',-0.455
'0:10.664',-0.440
'0:10.666',-0.675
'0:10.668',-0.880
'0:10.670',-0.915
'0:10.672',-0.950
'0:10.674',-0.930
'0:10.676',-0.920
'0:10.678',-0.830
'0:10.680',-0.975
'0:10.682',-0.995
'0:10.684',-1.125
'0:10.686',-1.165
'0:10.688',-1.150
'0:10.690',-1.240
'0:10.692',-1.190
'0:10.694',-1.185
'0:10.696',-1.030
'0:10.698',-0.970
'0:10.700',-0.920
'0:10.702',-0.870
'0:10.704',-0.850
'0:10.706',-1.005
'0:10.708',-1.125
'0:10.710',-1.060
'0:10.712',-0.925
'0:10.714',-0.930
'0:10.716',-0.945
'0:10.718',-0.865
'0:10.720',-0.795
'0:10.722',-0.770
'0:10.724',-0.875
'0:10.726',-0.990
'0:10.728',-1.075
'0:10.730',-1.020
'0:10.732',-1.065
'0:10.734',-1.035
'0:10.736',-0.865
'0:10.738',-0.735
'0:10.740',-0.710
'0:10.742',-0.755
'0:10.744',-0.770
'0:10.746',-1.000
'0:10.748',-1.190
'0:10.750',-0.965
'0:10.752',-0.960
'0:10.754',-1.050
'0:10.756',-0.885
'0:10.758',-0.780
'0:10.760',-0.735
'0:10.762',-0.805
'0:10.764',-0.785
'0:10.766',-0.945
'0:10.768',-1.005
'0:10.770',-1.050
'0:10.772',-1.015
'0:10.774',-0.855
'0:10.776',-0.800
'0:10.778',-0.750
'0:10.780',-0.695
'0:10.782',-0.880
'0:10.784',-1.015
'0:10.786',-0.845
'0:10.788',-1.065
'0:10.790',-1.040
'0:10.792',-0.875
'0:10.794',-0.930
'0:10.796',-0.825
'0:10.798',-0.730
'0:10.800',-0.745
'0:10.802',-0.795
'0:10.804',-0.830
'0:10.806',-0.930
'0:10.808',-0.940
'0:10.810',-1.010
'0:10.812',-0.950
'0:10.814',-0.905
'0:10.816',-0.810
'0:10.818',-0.785
'0:10.820',-0.720
'0:10.822',-0.775
'0:10.824',-0.805
'0:10.826',-0.845
'0:10.828',-0.950
'0:10.830',-0.990
'0:10.832',-0.925
'0:10.834',-0.900
'0:10.836',-0.760
'0:10.838',-0.620
'0:10.840',-0.705
'0:10.842',-0.675
'0:10.844',-0.735
'0:10.846',-0.865
'0:10.848',-0.960
'0:10.850',-0.970
'0:10.852',-0.835
'0:10.854',-0.700
'0:10.856',-0.640
'0:10.858',-0.545
'0:10.860',-0.560
'0:10.862',-0.615
'0:10.864',-0.665
'0:10.866',-0.800
'0:10.868',-0.825
'0:10.870',-0.815
'0:10.872',-0.760
'0:10.874',-0.710
'0:10.876',-0.580
'0:10.878',-0.570
'0:10.880',-0.510
'0:10.882',-0.565
'0:10.884',-0.610
'0:10.886',-0.655
'0:10.888',-0.800
'0:10.890',-0.805
'0:10.892',-0.800
'0:10.894',-0.670
'0:10.896',-0.555
'0:10.898',-0.530
'0:10.900',-0.530
'0:10.902',-0.630
'0:10.904',-0.665
'0:10.906',-0.815
'0:10.908',-0.885
'0:10.910',-0.880
'0:10.912',-0.850
'0:10.914',-0.820
'0:10.916',-0.705
'0:10.918',-0.660
'0:10.920',-0.635
'0:10.922',-0.675
'0:10.924',-0.740
'0:10.926',-0.910
'0:10.928',-0.970
'0:10.930',-0.965
'0:10.932',-0.930
'0:10.934',-0.825
'0:10.936',-0.780
'0:10.938',-0.705
'0:10.940',-0.715
'0:10.942',-0.805
'0:10.944',-0.875
'0:10.946',-0.920
'0:10.948',-1.080
'0:10.950',-1.030
'0:10.952',-0.945
'0:10.954',-0.835
'0:10.956',-0.790
'0:10.958',-0.720
'0:10.960',-0.810
'0:10.962',-0.865
'0:10.964',-0.925
'0:10.966',-0.990
'0:10.968',-0.985
'0:10.970',-1.050
'0:10.972',-0.990
'0:10.974',-0.895
'0:10.976',-0.835
'0:10.978',-0.825
'0:10.980',-0.790
'0:10.982',-0.825
'0:10.984',-0.915
'0:10.986',-1.015
'0:10.988',-1.090
'0:10.990',-1.050
'0:10.992',-1.065
'0:10.994',-0.925
'0:10.996',-0.775
'0:10.998',-0.795
'0:11.000',-0.825
'0:11.002',-0.890
'0:11.004',-1.005
'0:11.006',-1.080
'0:11.008',-1.085
'0:11.010',-1.020
'0:11.012',-0.855
'0:11.014',-0.835
'0:11.016',-0.955
'0:11.018',-0.800
'0:11.020',-0.795
'0:11.022',-0.890
'0:11.024',-0.930
'0:11.026',-1.025
'0:11.028',-0.990
'0:11.030',-0.955
'0:11.032',-0.980
'0:11.034',-0.905
'0:11.036',-0.860
'0:11.038',-0.780
'0:11.040',-0.840
'0:11.042',-0.810
'0:11.044',-0.930
'0:11.046',-1.010
'0:11.048',-1.100
'0:11.050',-1.070
'0:11.052',-0.890
'0:11.054',-0.895
'0:11.056',-0.860
'0:11.058',-0.770
'0:11.060',-0.780
'0:11.062',-0.865
'0:11.064',-0.920
'0:11.066',-0.975
'0:11.068',-1.095
'0:11.070',-0.960
'0:11.072',-0.970
'0:11.074',-0.890
'0:11.076',-0.725
'0:11.078',-0.770
'0:11.080',-0.845
'0:11.082',-0.860
'0:11.084',-1.020
'0:11.086',-1.045
'0:11.088',-1.045
'0:11.090',-1.020
'0:11.092',-0.960
'0:11.094',-0.870
'0:11.096',-0.815
'0:11.098',-0.780
'0:11.100',-0.825
'0:11.102',-0.895
'0:11.104',-0.990
'0:11.106',-1.040
'0:11.108',-1.115
'0:11.110',-1.005
'0:11.112',-0.960
'0:11.114',-0.895
'0:11.116',-0.815
'0:11.118',-0.905
'0:11.120',-0.780
'0:11.122',-0.830
'0:11.124',-0.985
'0:11.126',-1.065
'0:11.128',-1.100
'0:11.130',-1.045
'0:11.132',-0.975
'0:11.134',-0.840
'0:11.136',-0.805
'0:11.138',-0.775
'0:11.140',-0.885
'0:11.142',-0.970
'0:11.144',-1.025
'0:11.146',-1.050
'0:11.148',-1.085
'0:11.150',-1.070
'0:11.152',-0.985
'0:11.154',-0.900
'0:11.156',-0.880
'0:11.158',-0.875
'0:11.160',-0.815
'0:11.162',-0.930
'0:11.164',-0.970
'0:11.166',-1.110
'0:11.168',-1.085
'0:11.170',-1.060
'0:11.172',-0.990
'0:11.174',-0.815
'0:11.176',-0.725
'0:11.178',-0.830
'0:11.180',-0.855
'0:11.182',-1.010
'0:11.184',-1.075
'0:11.186',-1.055
'0:11.188',-1.085
'0:11.190',-1.045
'0:11.192',-0.945
'0:11.194',-0.970
'0:11.196',-0.800
'0:11.198',-0.825
'0:11.200',-0.785
'0:11.202',-0.925
'0:11.204',-1.110
'0:11.206',-1.085
'0:11.208',-1.070
'0:11.210',-0.995
'0:11.212',-0.985
'0:11.214',-0.835
'0:11.216',-0.830
'0:11.218',-0.865
'0:11.220',-0.915
'0:11.222',-0.970
'0:11.224',-1.065
'0:11.226',-1.110
'0:11.228',-1.140
'0:11.230',-1.095
'0:11.232',-0.945
'0:11.234',-0.880
'0:11.236',-0.840
'0:11.238',-0.760
'0:11.240',-0.880
'0:11.242',-0.980
'0:11.244',-1.130
'0:11.246',-1.095
'0:11.248',-1.090
'0:11.250',-1.050
'0:11.252',-0.870
'0:11.254',-0.870
'0:11.256',-0.795
'0:11.258',-0.795
'0:11.260',-0.890
'0:11.262',-0.985
'0:11.264',-1.065
'0:11.266',-1.110
'0:11.268',-0.995
'0:11.270',-1.000
'0:11.272',-0.920
'0:11.274',-0.770
'0:11.276',-0.750
'0:11.278',-0.855
'0:11.280',-0.805
'0:11.282',-0.865
'0:11.284',-1.055
'0:11.286',-1.030
'0:11.288',-1.080
'0:11.290',-0.975
'0:11.292',-0.905
'0:11.294',-0.795
'0:11.296',-0.800
'0:11.298',-0.855
'0:11.300',-0.875
'0:11.302',-0.910
'0:11.304',-1.060
'0:11.306',-1.070
'0:11.308',-1.070
'0:11.310',-1.020
'0:11.312',-0.895
'0:11.314',-0.845
'0:11.316',-0.850
'0:11.318',-0.820
'0:11.320',-0.875
'0:11.322',-1.035
'0:11.324',-1.105
'0:11.326',-1.115
'0:11.328',-1.035
'0:11.330',-1.085
'0:11.332',-0.995
'0:11.334',-0.765
'0:11.336',-0.735
'0:11.338',-0.975
'0:11.340',-0.935
'0:11.342',-1.010
'0:11.344',-1.075
'0:11.346',-1.075
'0:11.348',-1.100
'0:11.350',-1.110
'0:11.352',-0.885
'0:11.354',-0.820
'0:11.356',-0.765
'0:11.358',-0.915
'0:11.360',-0.980
'0:11.362',-1.060
'0:11.364',-1.065
'0:11.366',-1.060
'0:11.368',-1.070
'0:11.370',-1.025
'0:11.372',-0.865
'0:11.374',-0.840
'0:11.376',-0.855
'0:11.378',-0.840
'0:11.380',-0.950
'0:11.382',-1.050
'0:11.384',-1.120
'0:11.386',-1.070
'0:11.388',-1.100
'0:11.390',-1.040
'0:11.392',-0.925
'0:11.394',-0.805
'0:11.396',-0.870
'0:11.398',-0.850
'0:11.400',-0.910
'0:11.402',-1.010
'0:11.404',-1.090
'0:11.406',-1.130
'0:11.408',-1.045
'0:11.410',-1.005
'0:11.412',-0.905
'0:11.414',-0.790
'0:11.416',-0.735
'0:11.418',-0.735
'0:11.420',-0.780
'0:11.422',-0.905
'0:11.424',-0.850
'0:11.426',-0.675
'0:11.428',-0.625
'0:11.430',-0.645
'0:11.432',-0.590
'0:11.434',-0.575
'0:11.436',-0.605
'0:11.438',-0.685
'0:11.440',-0.800
'0:11.442',-0.950
'0:11.444',-1.145
'0:11.446',-1.135
'0:11.448',-1.090
'0:11.450',-1.080
'0:11.452',-1.020
'0:11.454',-1.025
'0:11.456',-1.060
'0:11.458',-1.100
'0:11.460',-1.205
'0:11.462',-1.235
'0:11.464',-1.285
'0:11.466',-1.220
'0:11.468',-1.185
'0:11.470',-1.070
'0:11.472',-0.985
'0:11.474',-0.895
'0:11.476',-0.855
'0:11.478',-0.880
'0:11.480',-0.995
'0:11.482',-1.190
'0:11.484',-1.085
'0:11.486',-1.100
'0:11.488',-1.040
'0:11.490',-1.025
'0:11.492',-0.875
'0:11.494',-0.915
'0:11.496',-0.860
'0:11.498',-0.925
'0:11.500',-0.935
'0:11.502',-1.100
'0:11.504',-1.120
'0:11.506',-1.070
'0:11.508',-1.065
'0:11.510',-0.995
'0:11.512',-0.845
'0:11.514',-0.880
'0:11.516',-0.810
'0:11.518',-0.905
'0:11.520',-0.935
'0:11.522',-1.075
'0:11.524',-1.050
'0:11.526',-1.055
'0:11.528',-1.065
'0:11.530',-0.940
'0:11.532',-0.860
'0:11.534',-0.870
'0:11.536',-0.885
'0:11.538',-0.880
'0:11.540',-0.910
'0:11.542',-1.095
'0:11.544',-1.095
'0:11.546',-1.120
'0:11.548',-1.005
'0:11.550',-0.915
'0:11.552',-0.945
'0:11.554',-0.810
'0:11.556',-0.900
'0:11.558',-0.920
'0:11.560',-0.960
'0:11.562',-1.065
'0:11.564',-1.050
'0:11.566',-1.050
'0:11.568',-0.920
'0:11.570',-0.840
'0:11.572',-0.865
'0:11.574',-0.845
'0:11.576',-0.855
'0:11.578',-0.900
'0:11.580',-0.995
'0:11.582',-1.035
'0:11.584',-1.055
'0:11.586',-1.015
'0:11.588',-1.075
'0:11.590',-0.935
'0:11.592',-0.760
'0:11.594',-0.785
'0:11.596',-0.810
'0:11.598',-0.805
'0:11.600',-0.930
'0:11.602',-0.945
'0:11.604',-0.990
'0:11.606',-0.960
'0:11.608',-0.950
'0:11.610',-0.810
'0:11.612',-0.720
'0:11.614',-0.725
'0:11.616',-0.660
'0:11.618',-0.745
'0:11.620',-0.895
'0:11.622',-0.945
'0:11.624',-0.895
'0:11.626',-0.885
'0:11.628',-0.885
'0:11.630',-0.760
'0:11.632',-0.610
'0:11.634',-0.585
'0:11.636',-0.625
'0:11.638',-0.705
'0:11.640',-0.765
'0:11.642',-0.810
'0:11.644',-0.785
'0:11.646',-0.760
'0:11.648',-0.905
'0:11.650',-0.615
'0:11.652',-0.560
'0:11.654',-0.540
'0:11.656',-0.635
'0:11.658',-0.695
'0:11.660',-0.730
'0:11.662',-0.850
'0:11.664',-0.890
'0:11.666',-0.805
'0:11.668',-0.800
'0:11.670',-0.680
'0:11.672',-0.565
'0:11.674',-0.520
'0:11.676',-0.660
'0:11.678',-0.750
'0:11.680',-0.885
'0:11.682',-0.905
'0:11.684',-0.965
'0:11.686',-0.885
'0:11.688',-0.920
'0:11.690',-0.730
'0:11.692',-0.650
'0:11.694',-0.700
'0:11.696',-0.785
'0:11.698',-0.790
'0:11.700',-0.955
'0:11.702',-1.000
'0:11.704',-1.000
'0:11.706',-0.985
'0:11.708',-0.935
'0:11.710',-0.705
'0:11.712',-0.830
'0:11.714',-0.920
'0:11.716',-0.855
'0:11.718',-0.785
'0:11.720',-1.070
'0:11.722',-1.200
'0:11.724',-1.085
'0:11.726',-1.005
'0:11.728',-0.935
'0:11.730',-0.900
'0:11.732',-0.875
'0:11.734',-0.840
'0:11.736',-0.865
'0:11.738',-0.880
'0:11.740',-1.035
'0:11.742',-1.055
'0:11.744',-1.105
'0:11.746',-1.100
'0:11.748',-1.080
'0:11.750',-0.900
'0:11.752',-0.875
'0:11.754',-0.840
'0:11.756',-0.885
'0:11.758',-0.875
'0:11.760',-1.140
'0:11.762',-1.115
'0:11.764',-1.020
'0:11.766',-1.085
'0:11.768',-0.985
'0:11.770',-0.845
'0:11.772',-0.890
'0:11.774',-0.955
'0:11.776',-0.860
'0:11.778',-1.010
'0:11.780',-1.030
'0:11.782',-1.115
'0:11.784',-1.095
'0:11.786',-1.115
'0:11.788',-1.000
'0:11.790',-0.835
'0:11.792',-0.810
'0:11.794',-0.885
'0:11.796',-0.885
'0:11.798',-0.935
'0:11.800',-1.115
'0:11.802',-1.155
'0:11.804',-1.140
'0:11.806',-1.095
'0:11.808',-0.910
'0:11.810',-0.885
'0:11.812',-0.770
'0:11.814',-0.800
'0:11.816',-0.890
'0:11.818',-0.990
'0:11.820',-1.065
'0:11.822',-1.065
'0:11.824',-1.100
'0:11.826',-1.075
'0:11.828',-0.885
'0:11.830',-0.765
'0:11.832',-0.860
'0:11.834',-0.850
'0:11.836',-0.900
'0:11.838',-1.000
'0:11.840',-1.130
'0:11.842',-1.120
'0:11.844',-1.120
'0:11.846',-1.035
'0:11.848',-0.935
'0:11.850',-0.840
'0:11.852',-0.815
'0:11.854',-0.895
'0:11.856',-0.880
'0:11.858',-0.985
'0:11.860',-1.120
'0:11.862',-1.150
'0:11.864',-1.160
'0:11.866',-0.980
'0:11.868',-0.935
'0:11.870',-0.940
'0:11.872',-0.855
'0:11.874',-0.870
'0:11.876',-0.900
'0:11.878',-0.990
'0:11.880',-1.120
'0:11.882',-1.125
'0:11.884',-1.085
'0:11.886',-1.055
'0:11.888',-0.990
'0:11.890',-0.865
'0:11.892',-0.845
'0:11.894',-0.885
'0:11.896',-0.925
'0:11.898',-1.070
'0:11.900',-1.130
'0:11.902',-1.120
'0:11.904',-1.085
'0:11.906',-1.025
'0:11.908',-0.970
'0:11.910',-0.850
'0:11.912',-0.805
'0:11.914',-0.905
'0:11.916',-1.080
'0:11.918',-1.035
'0:11.920',-1.110
'0:11.922',-1.180
'0:11.924',-1.130
'0:11.926',-1.030
'0:11.928',-0.975
'0:11.930',-0.810
'0:11.932',-0.790
'0:11.934',-0.820
'0:11.936',-0.935
'0:11.938',-1.110
'0:11.940',-1.065
'0:11.942',-1.270
'0:11.944',-1.165
'0:11.946',-1.110
'0:11.948',-0.920
'0:11.950',-0.825
'0:11.952',-0.895
'0:11.954',-0.935
'0:11.956',-0.930
'0:11.958',-1.050
'0:11.960',-1.165
'0:11.962',-1.140
'0:11.964',-1.075
'0:11.966',-1.100
'0:11.968',-0.975
'0:11.970',-0.875
'0:11.972',-0.840
'0:11.974',-0.890
'0:11.976',-1.040
'0:11.978',-1.185
'0:11.980',-1.190
'0:11.982',-1.110
'0:11.984',-1.040
'0:11.986',-1.040
'0:11.988',-0.985
'0:11.990',-0.830
'0:11.992',-0.910
'0:11.994',-0.935
'0:11.996',-0.985
'0:11.998',-1.105
'0:12.000',-1.120
'0:12.002',-1.160
'0:12.004',-1.160
'0:12.006',-1.065
'0:12.008',-0.975
'0:12.010',-0.875
'0:12.012',-0.890
'0:12.014',-0.845
'0:12.016',-0.970
'0:12.018',-1.135
'0:12.020',-1.110
'0:12.022',-1.205
'0:12.024',-1.125
'0:12.026',-1.030
'0:12.028',-0.930
'0:12.030',-0.875
'0:12.032',-0.820
'0:12.034',-0.865
'0:12.036',-1.020
'0:12.038',-1.080
'0:12.040',-1.165
'0:12.042',-1.115
'0:12.044',-1.095
'0:12.046',-1.030
'0:12.048',-0.950
'0:12.050',-0.890
'0:12.052',-0.820
'0:12.054',-0.895
'0:12.056',-0.985
'0:12.058',-1.135
'0:12.060',-1.200
'0:12.062',-1.100
'0:12.064',-1.040
'0:12.066',-0.890
'0:12.068',-0.925
'0:12.070',-0.840
'0:12.072',-0.870
'0:12.074',-0.915
'0:12.076',-0.905
'0:12.078',-1.045
'0:12.080',-1.020
'0:12.082',-1.075
'0:12.084',-1.080
'0:12.086',-0.930
'0:12.088',-0.920
'0:12.090',-0.790
'0:12.092',-0.785
'0:12.094',-0.945
'0:12.096',-0.965
'0:12.098',-1.135
'0:12.100',-1.125
'0:12.102',-1.110
'0:12.104',-1.040
'0:12.106',-0.940
'0:12.108',-0.865
'0:12.110',-0.840
'0:12.112',-0.875
'0:12.114',-0.930
'0:12.116',-1.070
'0:12.118',-1.185
'0:12.120',-1.135
'0:12.122',-1.095
'0:12.124',-1.070
'0:12.126',-0.985
'0:12.128',-0.900
'0:12.130',-0.895
'0:12.132',-0.915
'0:12.134',-0.990
'0:12.136',-1.000
'0:12.138',-1.140
'0:12.140',-1.180
'0:12.142',-1.180
'0:12.144',-1.050
'0:12.146',-0.920
'0:12.148',-0.885
'0:12.150',-0.885
'0:12.152',-0.875
'0:12.154',-0.895
'0:12.156',-1.070
'0:12.158',-1.115
'0:12.160',-1.175
'0:12.162',-1.215
'0:12.164',-1.130
'0:12.166',-0.960
'0:12.168',-0.880
'0:12.170',-0.860
'0:12.172',-0.945
'0:12.174',-0.950
'0:12.176',-1.070
'0:12.178',-1.185
'0:12.180',-1.155
'0:12.182',-1.195
'0:12.184',-1.115
'0:12.186',-0.910
'0:12.188',-0.900
'0:12.190',-0.845
'0:12.192',-0.890
'0:12.194',-1.015
'0:12.196',-1.065
'0:12.198',-1.125
'0:12.200',-1.235
'0:12.202',-1.250
'0:12.204',-1.060
'0:12.206',-0.940
'0:12.208',-0.865
'0:12.210',-0.830
'0:12.212',-0.870
'0:12.214',-0.855
'0:12.216',-0.875
'0:12.218',-0.935
'0:12.220',-0.960
'0:12.222',-0.865
'0:12.224',-0.695
'0:12.226',-0.580
'0:12.228',-0.515
'0:12.230',-0.490
'0:12.232',-0.575
'0:12.234',-0.635
'0:12.236',-0.900
'0:12.238',-0.970
'0:12.240',-1.125
'0:12.242',-1.155
'0:12.244',-1.145
'0:12.246',-0.990
'0:12.248',-0.890
'0:12.250',-1.080
'0:12.252',-1.075
'0:12.254',-1.235
'0:12.256',-1.410
'0:12.258',-1.340
'0:12.260',-1.240
'0:12.262',-1.320
'0:12.264',-1.270
'0:12.266',-1.005
'0:12.268',-1.025
'0:12.270',-1.000
'0:12.272',-0.970
'0:12.274',-1.005
'0:12.276',-1.095
'0:12.278',-1.230
'0:12.280',-1.210
'0:12.282',-1.145
'0:12.284',-1.065
'0:12.286',-0.950
'0:12.288',-0.950
'0:12.290',-0.850
'0:12.292',-0.875
'0:12.294',-0.995
'0:12.296',-1.125
'0:12.298',-1.100
'0:12.300',-1.125
'0:12.302',-1.145
'0:12.304',-1.080
'0:12.306',-0.945
'0:12.308',-0.940
'0:12.310',-0.825
'0:12.312',-0.855
'0:12.314',-0.955
'0:12.316',-1.160
'0:12.318',-1.170
'0:12.320',-1.170
'0:12.322',-1.110
'0:12.324',-1.055
'0:12.326',-0.900
'0:12.328',-0.850
'0:12.330',-0.865
'0:12.332',-0.915
'0:12.334',-0.985
'0:12.336',-1.065
'0:12.338',-1.175
'0:12.340',-1.135
'0:12.342',-1.075
'0:12.344',-1.045
'0:12.346',-0.895
'0:12.348',-0.895
'0:12.350',-0.845
'0:12.352',-0.955
'0:12.354',-1.040
'0:12.356',-1.050
'0:12.358',-1.155
'0:12.360',-1.160
'0:12.362',-1.095
'0:12.364',-1.010
'0:12.366',-0.905
'0:12.368',-0.775
'0:12.370',-0.770
'0:12.372',-0.975
'0:12.374',-1.030
'0:12.376',-1.050
'0:12.378',-1.110
'0:12.380',-1.065
'0:12.382',-1.055
'0:12.384',-0.925
'0:12.386',-0.870
'0:12.388',-0.800
'0:12.390',-0.895
'0:12.392',-0.870
'0:12.394',-0.945
'0:12.396',-1.115
'0:12.398',-1.255
'0:12.400',-0.965
'0:12.402',-0.940
'0:12.404',-0.895
'0:12.406',-0.815
'0:12.408',-0.635
'0:12.410',-0.720
'0:12.412',-0.835
'0:12.414',-0.865
'0:12.416',-0.985
'0:12.418',-1.095
'0:12.420',-0.935
'0:12.422',-0.850
'0:12.424',-0.715
'0:12.426',-0.655
'0:12.428',-0.675
'0:12.430',-0.625
'0:12.432',-0.640
'0:12.434',-0.770
'0:12.436',-0.845
'0:12.438',-0.890
'0:12.440',-0.860
'0:12.442',-0.860
'0:12.444',-0.645
'0:12.446',-0.595
'0:12.448',-0.575
'0:12.450',-0.625
'0:12.452',-0.665
'0:12.454',-0.760
'0:12.456',-0.815
'0:12.458',-0.825
'0:12.460',-0.745
'0:12.462',-0.745
'0:12.464',-0.655
'0:12.466',-0.595
'0:12.468',-0.625
'0:12.470',-0.670
'0:12.472',-0.695
'0:12.474',-0.770
'0:12.476',-0.870
'0:12.478',-0.920
'0:12.480',-0.855
'0:12.482',-0.890
'0:12.484',-0.750
'0:12.486',-0.595
'0:12.488',-0.610
'0:12.490',-0.735
'0:12.492',-0.845
'0:12.494',-0.875
'0:12.496',-1.010
'0:12.498',-1.090
'0:12.500',-0.940
'0:12.502',-0.915
'0:12.504',-0.830
'0:12.506',-0.815
'0:12.508',-0.795
'0:12.510',-0.825
'0:12.512',-0.925
'0:12.514',-1.020
'0:12.516',-1.060
'0:12.518',-1.105
'0:12.520',-1.030
'0:12.522',-1.035
'0:12.524',-0.950
'0:12.526',-0.920
'0:12.528',-0.880
'0:12.530',-0.810
'0:12.532',-0.915
'0:12.534',-0.985
'0:12.536',-1.160
'0:12.538',-1.145
'0:12.540',-1.095
'0:12.542',-1.055
'0:12.544',-0.905
'0:12.546',-0.845
'0:12.548',-0.790
'0:12.550',-0.935
'0:12.552',-0.960
'0:12.554',-1.055
'0:12.556',-1.135
'0:12.558',-1.130
'0:12.560',-1.075
'0:12.562',-1.050
'0:12.564',-0.890
'0:12.566',-0.915
'0:12.568',-0.835
'0:12.570',-0.860
'0:12.572',-0.900
'0:12.574',-1.060
'0:12.576',-1.135
'0:12.578',-1.170
'0:12.580',-1.135
'0:12.582',-1.015
'0:12.584',-0.940
'0:12.586',-0.880
'0:12.588',-0.860
'0:12.590',-0.935
'0:12.592',-0.990
'0:12.594',-1.090
'0:12.596',-1.090
'0:12.598',-1.145
'0:12.600',-1.105
'0:12.602',-1.005
'0:12.604',-0.895
'0:12.606',-0.840
'0:12.608',-0.825
'0:12.610',-0.845
'0:12.612',-0.965
'0:12.614',-1.035
'0:12.616',-1.130
'0:12.618',-1.210
'0:12.620',-1.130
'0:12.622',-0.935
'0:12.624',-0.840
'0:12.626',-0.880
'0:12.628',-0.865
'0:12.630',-0.910
'0:12.632',-0.980
'0:12.634',-1.070
'0:12.636',-1.160
'0:12.638',-1.095
'0:12.640',-1.045
'0:12.642',-1.025
'0:12.644',-0.890
'0:12.646',-0.855
'0:12.648',-0.895
'0:12.650',-0.890
'0:12.652',-1.030
'0:12.654',-1.060
'0:12.656',-1.085
'0:12.658',-1.080
'0:12.660',-1.190
'0:12.662',-1.005
'0:12.664',-0.890
'0:12.666',-0.850
'0:12.668',-0.875
'0:12.670',-0.890
'0:12.672',-1.055
'0:12.674',-1.180
'0:12.676',-1.145
'0:12.678',-1.050
'0:12.680',-1.005
'0:12.682',-1.055
'0:12.684',-0.850
'0:12.686',-0.880
'0:12.688',-0.910
'0:12.690',-0.950
'0:12.692',-1.005
'0:12.694',-1.095
'0:12.696',-1.165
'0:12.698',-1.055
'0:12.700',-1.060
'0:12.702',-0.985
'0:12.704',-0.865
'0:12.706',-0.900
'0:12.708',-0.955
'0:12.710',-0.985
'0:12.712',-1.040
'0:12.714',-1.100
'0:12.716',-1.155
'0:12.718',-1.055
'0:12.720',-1.100
'0:12.722',-0.995
'0:12.724',-0.875
'0:12.726',-0.885
'0:12.728',-0.895
'0:12.730',-0.885
'0:12.732',-1.065
'0:12.734',-1.125
'0:12.736',-1.200
'0:12.738',-1.075
'0:12.740',-1.055
'0:12.742',-0.950
'0:12.744',-0.905
'0:12.746',-0.840
'0:12.748',-0.870
'0:12.750',-0.915
'0:12.752',-1.170
'0:12.754',-1.145
'0:12.756',-1.165
'0:12.758',-1.130
'0:12.760',-1.015
'0:12.762',-1.020
'0:12.764',-0.830
'0:12.766',-0.800
'0:12.768',-0.860
'0:12.770',-0.930
'0:12.772',-1.040
'0:12.774',-1.225
'0:12.776',-1.125
'0:12.778',-1.100
'0:12.780',-1.040
'0:12.782',-0.950
'0:12.784',-0.930
'0:12.786',-0.940
'0:12.788',-0.930
'0:12.790',-0.920
'0:12.792',-1.020
'0:12.794',-1.145
'0:12.796',-1.190
'0:12.798',-1.130
'0:12.800',-1.090
'0:12.802',-0.975
'0:12.804',-0.910
'0:12.806',-0.865
'0:12.808',-0.740
'0:12.810',-0.960
'0:12.812',-1.120
'0:12.814',-1.075
'0:12.816',-1.150
'0:12.818',-1.050
'0:12.820',-1.055
'0:12.822',-0.965
'0:12.824',-0.950
'0:12.826',-0.950
'0:12.828',-1.015
'0:12.830',-0.920
'0:12.832',-1.005
'0:12.834',-1.145
'0:12.836',-1.125
'0:12.838',-1.115
'0:12.840',-1.155
'0:12.842',-0.960
'0:12.844',-0.865
'0:12.846',-0.845
'0:12.848',-0.785
'0:12.850',-0.900
'0:12.852',-1.100
'0:12.854',-1.215
'0:12.856',-1.175
'0:12.858',-1.120
'0:12.860',-1.090
'0:12.862',-0.890
'0:12.864',-0.830
'0:12.866',-0.830
'0:12.868',-0.940
'0:12.870',-0.945
'0:12.872',-1.135
'0:12.874',-1.195
'0:12.876',-1.100
'0:12.878',-1.000
'0:12.880',-1.025
'0:12.882',-0.885
'0:12.884',-0.815
'0:12.886',-0.790
'0:12.888',-0.885
'0:12.890',-0.935
'0:12.892',-0.990
'0:12.894',-1.080
'0:12.896',-1.110
'0:12.898',-1.040
'0:12.900',-0.965
'0:12.902',-0.790
'0:12.904',-0.895
'0:12.906',-0.905
'0:12.908',-0.875
'0:12.910',-0.920
'0:12.912',-1.090
'0:12.914',-1.135
'0:12.916',-1.155
'0:12.918',-0.995
'0:12.920',-1.020
'0:12.922',-0.905
'0:12.924',-0.850
'0:12.926',-0.880
'0:12.928',-0.890
'0:12.930',-1.040
'0:12.932',-1.130
'0:12.934',-1.135
'0:12.936',-1.165
'0:12.938',-1.195
'0:12.940',-1.005
'0:12.942',-0.950
'0:12.944',-0.785
'0:12.946',-0.905
'0:12.948',-0.980
'0:12.950',-1.085
'0:12.952',-1.120
'0:12.954',-1.150
'0:12.956',-1.125
'0:12.958',-1.115
'0:12.960',-1.040
'0:12.962',-0.845
'0:12.964',-0.940
'0:12.966',-0.905
'0:12.968',-0.960
'0:12.970',-1.075
'0:12.972',-1.145
'0:12.974',-1.145
'0:12.976',-1.220
'0:12.978',-1.145
'0:12.980',-1.030
'0:12.982',-0.975
'0:12.984',-0.980
'0:12.986',-0.900
'0:12.988',-0.855
'0:12.990',-1.065
'0:12.992',-1.135
'0:12.994',-1.175
'0:12.996',-1.205
'0:12.998',-0.995
'0:13.000',-0.955
'0:13.002',-0.930
'0:13.004',-0.940
'0:13.006',-0.950
'0:13.008',-1.000
'0:13.010',-1.045
'0:13.012',-1.080
'0:13.014',-1.185
'0:13.016',-1.195
'0:13.018',-1.090
'0:13.020',-0.980
'0:13.022',-0.885
'0:13.024',-0.860
'0:13.026',-0.885
'0:13.028',-0.910
'0:13.030',-0.970
'0:13.032',-1.020
'0:13.034',-1.015
'0:13.036',-0.960
'0:13.038',-0.795
'0:13.040',-0.640
'0:13.042',-0.405
'0:13.044',-0.420
'0:13.046',-0.490
'0:13.048',-0.585
'0:13.050',-0.690
'0:13.052',-0.815
'0:13.054',-1.025
'0:13.056',-1.050
'0:13.058',-1.035
'0:13.060',-0.945
'0:13.062',-0.965
'0:13.064',-1.005
'0:13.066',-1.080
'0:13.068',-1.175
'0:13.070',-1.320
'0:13.072',-1.360
'0:13.074',-1.390
'0:13.076',-1.305
'0:13.078',-1.260
'0:13.080',-1.185
'0:13.082',-1.045
'0:13.084',-0.990
'0:13.086',-1.030
'0:13.088',-1.065
'0:13.090',-1.110
'0:13.092',-1.175
'0:13.094',-1.170
'0:13.096',-1.110
'0:13.098',-1.055
'0:13.100',-0.970
'0:13.102',-0.965
'0:13.104',-0.915
'0:13.106',-0.910
'0:13.108',-1.065
'0:13.110',-1.160
'0:13.112',-1.130
'0:13.114',-1.140
'0:13.116',-1.090
'0:13.118',-0.995
'0:13.120',-0.910
'0:13.122',-0.845
'0:13.124',-0.845
'0:13.126',-0.955
'0:13.128',-0.940
'0:13.130',-1.065
'0:13.132',-1.125
'0:13.134',-1.160
'0:13.136',-1.080
'0:13.138',-1.090
'0:13.140',-1.000
'0:13.142',-0.885
'0:13.144',-0.950
'0:13.146',-0.890
'0:13.148',-0.975
'0:13.150',-1.075
'0:13.152',-1.130
'0:13.154',-1.070
'0:13.156',-1.050
'0:13.158',-1.050
'0:13.160',-0.945
'0:13.162',-0.870
'0:13.164',-0.860
'0:13.166',-0.865
'0:13.168',-0.930
'0:13.170',-1.080
'0:13.172',-1.105
'0:13.174',-1.065
'0:13.176',-1.055
'0:13.178',-1.095
'0:13.180',-0.920
'0:13.182',-0.745
'0:13.184',-0.830
'0:13.186',-0.920
'0:13.188',-0.965
'0:13.190',-1.055
'0:13.192',-1.140
'0:13.194',-1.015
'0:13.196',-0.980
'0:13.198',-0.935
'0:13.200',-0.800
'0:13.202',-0.835
'0:13.204',-0.740
'0:13.206',-0.865
'0:13.208',-0.780
'0:13.210',-0.960
'0:13.212',-1.165
'0:13.214',-1.060
'0:13.216',-1.000
'0:13.218',-0.860
'0:13.220',-0.855
'0:13.222',-0.760
'0:13.224',-0.730
'0:13.226',-0.755
'0:13.228',-0.845
'0:13.230',-0.960
'0:13.232',-0.950
'0:13.234',-0.940
'0:13.236',-0.800
'0:13.238',-0.835
'0:13.240',-0.755
'0:13.242',-0.615
'0:13.244',-0.585
'0:13.246',-0.585
'0:13.248',-0.745
'0:13.250',-0.880
'0:13.252',-0.875
'0:13.254',-0.775
'0:13.256',-0.765
'0:13.258',-0.695
'0:13.260',-0.540
'0:13.262',-0.515
'0:13.264',-0.555
'0:13.266',-0.580
'0:13.268',-0.720
'0:13.270',-0.785
'0:13.272',-0.835
'0:13.274',-0.745
'0:13.276',-0.800
'0:13.278',-0.630
'0:13.280',-0.540
'0:13.282',-0.540
'0:13.284',-0.700
'0:13.286',-0.700
'0:13.288',-0.710
'0:13.290',-0.810
'0:13.292',-0.855
'0:13.294',-0.860
'0:13.296',-0.730
'0:13.298',-0.800
'0:13.300',-0.575
'0:13.302',-0.675
'0:13.304',-0.630
'0:13.306',-0.690
'0:13.308',-0.845
'0:13.310',-0.950
'0:13.312',-1.010
'0:13.314',-0.905
'0:13.316',-0.930
'0:13.318',-0.830
'0:13.320',-0.750
'0:13.322',-0.675
'0:13.324',-0.800
'0:13.326',-0.795
