'Elapsed time','MLII'
'hh:mm:ss.mmm','mV'
'0:10.000',-0.710
'0:10.003',-0.700
'0:10.006',-0.705
'0:10.008',-0.690
'0:10.011',-0.690
'0:10.014',-0.685
'0:10.017',-0.690
'0:10.019',-0.710
'0:10.022',-0.695
'0:10.025',-0.710
'0:10.028',-0.710
'0:10.031',-0.700
'0:10.033',-0.680
'0:10.036',-0.655
'0:10.039',-0.605
'0:10.042',-0.550
'0:10.044',-0.475
'0:10.047',-0.400
'0:10.050',-0.290
'0:10.053',-0.165
'0:10.056',-0.045
'0:10.058',0.055
'0:10.061',0.120
'0:10.064',0.145
'0:10.067',0.090
'0:10.069',-0.010
'0:10.072',-0.145
'0:10.075',-0.270
'0:10.078',-0.410
'0:10.081',-0.570
'0:10.083',-0.730
'0:10.086',-0.870
'0:10.089',-0.930
'0:10.092',-0.940
'0:10.094',-0.915
'0:10.097',-0.875
'0:10.100',-0.820
'0:10.103',-0.775
'0:10.106',-0.770
'0:10.108',-0.765
'0:10.111',-0.790
'0:10.114',-0.815
'0:10.117',-0.830
'0:10.119',-0.830
'0:10.122',-0.835
'0:10.125',-0.840
'0:10.128',-0.840
'0:10.131',-0.820
'0:10.133',-0.810
'0:10.136',-0.815
'0:10.139',-0.820
'0:10.142',-0.815
'0:10.144',-0.815
'0:10.147',-0.815
'0:10.150',-0.820
'0:10.153',-0.825
'0:10.156',-0.830
'0:10.158',-0.835
'0:10.161',-0.850
'0:10.164',-0.845
'0:10.167',-0.850
'0:10.169',-0.840
'0:10.172',-0.835
'0:10.175',-0.830
'0:10.178',-0.835
'0:10.181',-0.845
'0:10.183',-0.850
'0:10.186',-0.850
'0:10.189',-0.860
'0:10.192',-0.870
'0:10.194',-0.875
'0:10.197',-0.880
'0:10.200',-0.875
'0:10.203',-0.870
'0:10.206',-0.870
'0:10.208',-0.860
'0:10.211',-0.860
'0:10.214',-0.875
'0:10.217',-0.880
'0:10.219',-0.880
'0:10.222',-0.890
'0:10.225',-0.900
'0:10.228',-0.900
'0:10.231',-0.900
'0:10.233',-0.900
'0:10.236',-0.895
'0:10.239',-0.895
'0:10.242',-0.900
'0:10.244',-0.895
'0:10.247',-0.905
'0:10.250',-0.910
'0:10.253',-0.920
'0:10.256',-0.930
'0:10.258',-0.935
'0:10.261',-0.935
'0:10.264',-0.935
'0:10.267',-0.940
'0:10.269',-0.940
'0:10.272',-0.945
'0:10.275',-0.945
'0:10.278',-0.950
'0:10.281',-0.960
'0:10.283',-0.970
'0:10.286',-0.980
'0:10.289',-0.980
'0:10.292',-0.985
'0:10.294',-0.990
'0:10.297',-0.990
'0:10.300',-0.985
'0:10.303',-0.965
'0:10.306',-0.970
'0:10.308',-0.970
'0:10.311',-0.955
'0:10.314',-0.955
'0:10.317',-0.955
'0:10.319',-0.955
'0:10.322',-0.955
'0:10.325',-0.950
'0:10.328',-0.950
'0:10.331',-0.940
'0:10.333',-0.930
'0:10.336',-0.915
'0:10.339',-0.895
'0:10.342',-0.880
'0:10.344',-0.870
'0:10.347',-0.845
'0:10.350',-0.825
'0:10.353',-0.810
'0:10.356',-0.795
'0:10.358',-0.790
'0:10.361',-0.775
'0:10.364',-0.745
'0:10.367',-0.720
'0:10.369',-0.695
'0:10.372',-0.660
'0:10.375',-0.645
'0:10.378',-0.630
'0:10.381',-0.610
'0:10.383',-0.605
'0:10.386',-0.605
'0:10.389',-0.605
'0:10.392',-0.605
'0:10.394',-0.610
'0:10.397',-0.605
'0:10.400',-0.595
'0:10.403',-0.590
'0:10.406',-0.585
'0:10.408',-0.580
'0:10.411',-0.580
'0:10.414',-0.580
'0:10.417',-0.590
'0:10.419',-0.600
'0:10.422',-0.595
'0:10.425',-0.620
'0:10.428',-0.620
'0:10.431',-0.620
'0:10.433',-0.620
'0:10.436',-0.615
'0:10.439',-0.615
'0:10.442',-0.610
'0:10.444',-0.610
'0:10.447',-0.610
'0:10.450',-0.605
'0:10.453',-0.625
'0:10.456',-0.630
'0:10.458',-0.635
'0:10.461',-0.645
'0:10.464',-0.650
'0:10.467',-0.645
'0:10.469',-0.650
'0:10.472',-0.645
'0:10.475',-0.645
'0:10.478',-0.630
'0:10.481',-0.640
'0:10.483',-0.655
'0:10.486',-0.650
'0:10.489',-0.655
'0:10.492',-0.665
'0:10.494',-0.665
'0:10.497',-0.665
'0:10.500',-0.680
'0:10.503',-0.680
'0:10.506',-0.670
'0:10.508',-0.660
'0:10.511',-0.655
'0:10.514',-0.670
'0:10.517',-0.655
'0:10.519',-0.660
'0:10.522',-0.680
'0:10.525',-0.685
'0:10.528',-0.690
'0:10.531',-0.685
'0:10.533',-0.690
'0:10.536',-0.680
'0:10.539',-0.680
'0:10.542',-0.675
'0:10.544',-0.665
'0:10.547',-0.665
'0:10.550',-0.670
'0:10.553',-0.680
'0:10.556',-0.675
'0:10.558',-0.680
'0:10.561',-0.665
'0:10.564',-0.665
'0:10.567',-0.640
'0:10.569',-0.625
'0:10.572',-0.605
'0:10.575',-0.595
'0:10.578',-0.580
'0:10.581',-0.585
'0:10.583',-0.580
'0:10.586',-0.570
'0:10.589',-0.585
'0:10.592',-0.590
'0:10.594',-0.600
'0:10.597',-0.605
'0:10.600',-0.590
'0:10.603',-0.575
'0:10.606',-0.560
'0:10.608',-0.555
'0:10.611',-0.540
'0:10.614',-0.545
'0:10.617',-0.550
'0:10.619',-0.575
'0:10.622',-0.590
'0:10.625',-0.620
'0:10.628',-0.640
'0:10.631',-0.655
'0:10.633',-0.655
'0:10.636',-0.645
'0:10.639',-0.650
'0:10.642',-0.650
'0:10.644',-0.655
'0:10.647',-0.655
'0:10.650',-0.670
'0:10.653',-0.705
'0:10.656',-0.720
'0:10.658',-0.730
'0:10.661',-0.745
'0:10.664',-0.750
'0:10.667',-0.755
'0:10.669',-0.750
'0:10.672',-0.755
'0:10.675',-0.735
'0:10.678',-0.745
'0:10.681',-0.750
'0:10.683',-0.755
'0:10.686',-0.755
'0:10.689',-0.765
'0:10.692',-0.755
'0:10.694',-0.760
'0:10.697',-0.765
'0:10.700',-0.760
'0:10.703',-0.745
'0:10.706',-0.745
'0:10.708',-0.735
'0:10.711',-0.735
'0:10.714',-0.735
'0:10.717',-0.725
'0:10.719',-0.740
'0:10.722',-0.735
'0:10.725',-0.740
'0:10.728',-0.730
'0:10.731',-0.665
'0:10.733',-0.610
'0:10.736',-0.520
'0:10.739',-0.400
'0:10.742',-0.265
'0:10.744',-0.145
'0:10.747',-0.020
'0:10.750',0.055
'0:10.753',0.060
'0:10.756',-0.010
'0:10.758',-0.125
'0:10.761',-0.260
'0:10.764',-0.385
'0:10.767',-0.525
'0:10.769',-0.675
'0:10.772',-0.810
'0:10.775',-0.910
'0:10.778',-0.940
'0:10.781',-0.950
'0:10.783',-0.925
'0:10.786',-0.900
'0:10.789',-0.875
'0:10.792',-0.855
'0:10.794',-0.850
'0:10.797',-0.850
'0:10.800',-0.875
'0:10.803',-0.870
'0:10.806',-0.870
'0:10.808',-0.865
'0:10.811',-0.855
'0:10.814',-0.850
'0:10.817',-0.860
'0:10.819',-0.865
'0:10.822',-0.860
'0:10.825',-0.865
'0:10.828',-0.865
'0:10.831',-0.880
'0:10.833',-0.870
'0:10.836',-0.860
'0:10.839',-0.860
'0:10.842',-0.865
'0:10.844',-0.845
'0:10.847',-0.845
'0:10.850',-0.855
'0:10.853',-0.865
'0:10.856',-0.875
'0:10.858',-0.885
'0:10.861',-0.905
'0:10.864',-0.895
'0:10.867',-0.890
'0:10.869',-0.880
'0:10.872',-0.870
'0:10.875',-0.880
'0:10.878',-0.880
'0:10.881',-0.880
'0:10.883',-0.890
'0:10.886',-0.915
'0:10.889',-0.915
'0:10.892',-0.930
'0:10.894',-0.925
'0:10.897',-0.930
'0:10.900',-0.915
'0:10.903',-0.910
'0:10.906',-0.910
'0:10.908',-0.915
'0:10.911',-0.905
'0:10.914',-0.920
'0:10.917',-0.915
'0:10.919',-0.940
'0:10.922',-0.960
'0:10.925',-0.945
'0:10.928',-0.960
'0:10.931',-0.960
'0:10.933',-0.965
'0:10.936',-0.965
'0:10.939',-0.955
'0:10.942',-0.955
'0:10.944',-0.960
'0:10.947',-0.955
'0:10.950',-0.965
'0:10.953',-0.985
'0:10.956',-0.990
'0:10.958',-1.005
'0:10.961',-0.995
'0:10.964',-1.000
'0:10.967',-1.000
'0:10.969',-1.000
'0:10.972',-1.000
'0:10.975',-0.985
'0:10.978',-0.995
'0:10.981',-0.990
'0:10.983',-0.990
'0:10.986',-1.010
'0:10.989',-1.010
'0:10.992',-1.015
'0:10.994',-1.015
'0:10.997',-1.005
'0:11.000',-0.995
'0:11.003',-0.995
'0:11.006',-0.980
'0:11.008',-0.975
'0:11.011',-0.955
'0:11.014',-0.950
'0:11.017',-0.960
'0:11.019',-0.970
'0:11.022',-0.955
'0:11.025',-0.960
'0:11.028',-0.955
'0:11.031',-0.940
'0:11.033',-0.920
'0:11.036',-0.900
'0:11.039',-0.875
'0:11.042',-0.865
'0:11.044',-0.835
'0:11.047',-0.810
'0:11.050',-0.785
'0:11.053',-0.765
'0:11.056',-0.765
'0:11.058',-0.745
'0:11.061',-0.725
'0:11.064',-0.720
'0:11.067',-0.705
'0:11.069',-0.700
'0:11.072',-0.675
'0:11.075',-0.660
'0:11.078',-0.645
'0:11.081',-0.635
'0:11.083',-0.625
'0:11.086',-0.630
'0:11.089',-0.645
'0:11.092',-0.630
'0:11.094',-0.650
'0:11.097',-0.630
'0:11.100',-0.635
'0:11.103',-0.635
'0:11.106',-0.625
'0:11.108',-0.625
'0:11.111',-0.615
'0:11.114',-0.635
'0:11.117',-0.630
'0:11.119',-0.650
'0:11.122',-0.660
'0:11.125',-0.675
'0:11.128',-0.670
'0:11.131',-0.685
'0:11.133',-0.680
'0:11.136',-0.685
'0:11.139',-0.685
'0:11.142',-0.675
'0:11.144',-0.670
'0:11.147',-0.670
'0:11.150',-0.670
'0:11.153',-0.675
'0:11.156',-0.685
'0:11.158',-0.700
'0:11.161',-0.705
'0:11.164',-0.705
'0:11.167',-0.700
'0:11.169',-0.695
'0:11.172',-0.690
'0:11.175',-0.695
'0:11.178',-0.685
'0:11.181',-0.690
'0:11.183',-0.685
'0:11.186',-0.705
'0:11.189',-0.715
'0:11.192',-0.720
'0:11.194',-0.720
'0:11.197',-0.715
'0:11.200',-0.720
'0:11.203',-0.720
'0:11.206',-0.710
'0:11.208',-0.710
'0:11.211',-0.700
'0:11.214',-0.710
'0:11.217',-0.715
'0:11.219',-0.710
'0:11.222',-0.720
'0:11.225',-0.725
'0:11.228',-0.730
'0:11.231',-0.735
'0:11.233',-0.730
'0:11.236',-0.720
'0:11.239',-0.710
'0:11.242',-0.700
'0:11.244',-0.695
'0:11.247',-0.700
'0:11.250',-0.700
'0:11.253',-0.680
'0:11.256',-0.685
'0:11.258',-0.675
'0:11.261',-0.670
'0:11.264',-0.665
'0:11.267',-0.645
'0:11.269',-0.630
'0:11.272',-0.620
'0:11.275',-0.615
'0:11.278',-0.600
'0:11.281',-0.625
'0:11.283',-0.625
'0:11.286',-0.630
'0:11.289',-0.635
'0:11.292',-0.645
'0:11.294',-0.635
'0:11.297',-0.635
'0:11.300',-0.620
'0:11.303',-0.600
'0:11.306',-0.600
'0:11.308',-0.605
'0:11.311',-0.615
'0:11.314',-0.645
'0:11.317',-0.680
'0:11.319',-0.710
'0:11.322',-0.700
'0:11.325',-0.705
'0:11.328',-0.710
'0:11.331',-0.715
'0:11.333',-0.725
'0:11.336',-0.730
'0:11.339',-0.730
'0:11.342',-0.760
'0:11.344',-0.750
'0:11.347',-0.775
'0:11.350',-0.765
'0:11.353',-0.775
'0:11.356',-0.795
'0:11.358',-0.795
'0:11.361',-0.815
'0:11.364',-0.805
'0:11.367',-0.805
'0:11.369',-0.800
'0:11.372',-0.795
'0:11.375',-0.790
'0:11.378',-0.785
'0:11.381',-0.795
'0:11.383',-0.785
'0:11.386',-0.805
'0:11.389',-0.805
'0:11.392',-0.795
'0:11.394',-0.790
'0:11.397',-0.800
'0:11.400',-0.795
'0:11.403',-0.790
'0:11.406',-0.785
'0:11.408',-0.790
'0:11.411',-0.770
'0:11.414',-0.775
'0:11.417',-0.750
'0:11.419',-0.720
'0:11.422',-0.675
'0:11.425',-0.605
'0:11.428',-0.500
'0:11.431',-0.390
'0:11.433',-0.255
'0:11.436',-0.135
'0:11.439',-0.025
'0:11.442',0.015
'0:11.444',0.000
'0:11.447',-0.095
'0:11.450',-0.225
'0:11.453',-0.360
'0:11.456',-0.475
'0:11.458',-0.590
'0:11.461',-0.730
'0:11.464',-0.860
'0:11.467',-0.965
'0:11.469',-1.025
'0:11.472',-1.035
'0:11.475',-1.010
'0:11.478',-0.970
'0:11.481',-0.945
'0:11.483',-0.940
'0:11.486',-0.940
'0:11.489',-0.935
'0:11.492',-0.940
'0:11.494',-0.945
'0:11.497',-0.940
'0:11.500',-0.925
'0:11.503',-0.910
'0:11.506',-0.905
'0:11.508',-0.895
'0:11.511',-0.885
'0:11.514',-0.890
'0:11.517',-0.905
'0:11.519',-0.900
'0:11.522',-0.915
'0:11.525',-0.930
'0:11.528',-0.915
'0:11.531',-0.920
'0:11.533',-0.920
'0:11.536',-0.925
'0:11.539',-0.910
'0:11.542',-0.910
'0:11.544',-0.900
'0:11.547',-0.900
'0:11.550',-0.910
'0:11.553',-0.925
'0:11.556',-0.925
'0:11.558',-0.940
'0:11.561',-0.940
'0:11.564',-0.925
'0:11.567',-0.940
'0:11.569',-0.940
'0:11.572',-0.950
'0:11.575',-0.935
'0:11.578',-0.930
'0:11.581',-0.935
'0:11.583',-0.935
'0:11.586',-0.945
'0:11.589',-0.955
'0:11.592',-0.960
'0:11.594',-0.960
'0:11.597',-0.970
'0:11.600',-0.975
'0:11.603',-0.965
'0:11.606',-0.960
'0:11.608',-0.960
'0:11.611',-0.950
'0:11.614',-0.970
'0:11.617',-0.965
'0:11.619',-0.970
'0:11.622',-0.980
'0:11.625',-0.990
'0:11.628',-0.990
'0:11.631',-1.000
'0:11.633',-1.005
'0:11.636',-1.000
'0:11.639',-0.995
'0:11.642',-1.000
'0:11.644',-0.995
'0:11.647',-0.995
'0:11.650',-1.005
'0:11.653',-1.015
'0:11.656',-1.030
'0:11.658',-1.035
'0:11.661',-1.040
'0:11.664',-1.045
'0:11.667',-1.035
'0:11.669',-1.025
'0:11.672',-1.015
'0:11.675',-1.015
'0:11.678',-1.005
'0:11.681',-1.005
'0:11.683',-1.000
'0:11.686',-1.005
'0:11.689',-1.005
'0:11.692',-1.010
'0:11.694',-1.010
'0:11.697',-1.010
'0:11.700',-0.990
'0:11.703',-0.980
'0:11.706',-0.965
'0:11.708',-0.950
'0:11.711',-0.935
'0:11.714',-0.920
'0:11.717',-0.915
'0:11.719',-0.905
'0:11.722',-0.900
'0:11.725',-0.895
'0:11.728',-0.870
'0:11.731',-0.860
'0:11.733',-0.830
'0:11.736',-0.805
'0:11.739',-0.775
'0:11.742',-0.755
'0:11.744',-0.720
'0:11.747',-0.695
'0:11.750',-0.700
'0:11.753',-0.685
'0:11.756',-0.690
'0:11.758',-0.675
'0:11.761',-0.675
'0:11.764',-0.655
'0:11.767',-0.655
'0:11.769',-0.645
'0:11.772',-0.635
'0:11.775',-0.635
'0:11.778',-0.625
'0:11.781',-0.640
'0:11.783',-0.645
'0:11.786',-0.650
'0:11.789',-0.660
'0:11.792',-0.670
'0:11.794',-0.670
'0:11.797',-0.675
'0:11.800',-0.685
'0:11.803',-0.695
'0:11.806',-0.680
'0:11.808',-0.685
'0:11.811',-0.685
'0:11.814',-0.700
'0:11.817',-0.690
'0:11.819',-0.705
'0:11.822',-0.710
'0:11.825',-0.715
'0:11.828',-0.720
'0:11.831',-0.735
'0:11.833',-0.730
'0:11.836',-0.725
'0:11.839',-0.720
'0:11.842',-0.720
'0:11.844',-0.715
'0:11.847',-0.720
'0:11.850',-0.730
'0:11.853',-0.725
'0:11.856',-0.730
'0:11.858',-0.735
'0:11.861',-0.745
'0:11.864',-0.745
'0:11.867',-0.750
'0:11.869',-0.755
'0:11.872',-0.750
'0:11.875',-0.745
'0:11.878',-0.745
'0:11.881',-0.740
'0:11.883',-0.745
'0:11.886',-0.745
'0:11.889',-0.765
'0:11.892',-0.775
'0:11.894',-0.765
'0:11.897',-0.770
'0:11.900',-0.760
'0:11.903',-0.740
'0:11.906',-0.740
'0:11.908',-0.735
'0:11.911',-0.735
'0:11.914',-0.745
'0:11.917',-0.755
'0:11.919',-0.755
'0:11.922',-0.750
'0:11.925',-0.750
'0:11.928',-0.755
'0:11.931',-0.755
'0:11.933',-0.755
'0:11.936',-0.740
'0:11.939',-0.725
'0:11.942',-0.710
'0:11.944',-0.685
'0:11.947',-0.685
'0:11.950',-0.675
'0:11.953',-0.670
'0:11.956',-0.655
'0:11.958',-0.655
'0:11.961',-0.665
'0:11.964',-0.660
'0:11.967',-0.665
'0:11.969',-0.660
'0:11.972',-0.660
'0:11.975',-0.655
'0:11.978',-0.640
'0:11.981',-0.640
'0:11.983',-0.645
'0:11.986',-0.630
'0:11.989',-0.625
'0:11.992',-0.630
'0:11.994',-0.635
'0:11.997',-0.650
'0:12.000',-0.675
'0:12.003',-0.685
'0:12.006',-0.690
'0:12.008',-0.695
'0:12.011',-0.695
'0:12.014',-0.690
'0:12.017',-0.715
'0:12.019',-0.710
'0:12.022',-0.730
'0:12.025',-0.735
'0:12.028',-0.755
'0:12.031',-0.775
'0:12.033',-0.790
'0:12.036',-0.795
'0:12.039',-0.785
'0:12.042',-0.790
'0:12.044',-0.785
'0:12.047',-0.795
'0:12.050',-0.805
'0:12.053',-0.810
'0:12.056',-0.820
'0:12.058',-0.820
'0:12.061',-0.820
'0:12.064',-0.820
'0:12.067',-0.815
'0:12.069',-0.825
'0:12.072',-0.805
'0:12.075',-0.795
'0:12.078',-0.790
'0:12.081',-0.795
'0:12.083',-0.800
'0:12.086',-0.810
'0:12.089',-0.810
'0:12.092',-0.815
'0:12.094',-0.810
'0:12.097',-0.810
'0:12.100',-0.820
'0:12.103',-0.800
'0:12.106',-0.795
'0:12.108',-0.780
'0:12.111',-0.750
'0:12.114',-0.710
'0:12.117',-0.665
'0:12.119',-0.590
'0:12.122',-0.485
'0:12.125',-0.365
'0:12.128',-0.230
'0:12.131',-0.125
'0:12.133',-0.060
'0:12.136',-0.055
'0:12.139',-0.110
'0:12.142',-0.220
'0:12.144',-0.360
'0:12.147',-0.495
'0:12.150',-0.640
'0:12.153',-0.800
'0:12.156',-0.965
'0:12.158',-1.080
'0:12.161',-1.115
'0:12.164',-1.110
'0:12.167',-1.090
'0:12.169',-1.050
'0:12.172',-1.025
'0:12.175',-0.990
'0:12.178',-0.975
'0:12.181',-0.970
'0:12.183',-0.965
'0:12.186',-0.955
'0:12.189',-0.950
'0:12.192',-0.940
'0:12.194',-0.930
'0:12.197',-0.930
'0:12.200',-0.930
'0:12.203',-0.915
'0:12.206',-0.915
'0:12.208',-0.910
'0:12.211',-0.900
'0:12.214',-0.900
'0:12.217',-0.915
'0:12.219',-0.910
'0:12.222',-0.915
'0:12.225',-0.940
'0:12.228',-0.940
'0:12.231',-0.945
'0:12.233',-0.940
'0:12.236',-0.925
'0:12.239',-0.920
'0:12.242',-0.920
'0:12.244',-0.915
'0:12.247',-0.915
'0:12.250',-0.925
'0:12.253',-0.930
'0:12.256',-0.940
'0:12.258',-0.935
'0:12.261',-0.935
'0:12.264',-0.945
'0:12.267',-0.955
'0:12.269',-0.955
'0:12.272',-0.945
'0:12.275',-0.945
'0:12.278',-0.930
'0:12.281',-0.940
'0:12.283',-0.945
'0:12.286',-0.945
'0:12.289',-0.955
'0:12.292',-0.965
'0:12.294',-0.970
'0:12.297',-0.980
'0:12.300',-0.985
'0:12.303',-0.970
'0:12.306',-0.965
'0:12.308',-0.970
'0:12.311',-0.960
'0:12.314',-0.975
'0:12.317',-0.970
'0:12.319',-0.980
'0:12.322',-0.990
'0:12.325',-0.990
'0:12.328',-1.000
'0:12.331',-1.025
'0:12.333',-1.020
'0:12.336',-1.015
'0:12.339',-1.000
'0:12.342',-1.015
'0:12.344',-1.000
'0:12.347',-1.000
'0:12.350',-1.005
'0:12.353',-1.025
'0:12.356',-1.030
'0:12.358',-1.040
'0:12.361',-1.040
'0:12.364',-1.045
'0:12.367',-1.040
'0:12.369',-1.030
'0:12.372',-1.015
'0:12.375',-1.015
'0:12.378',-1.000
'0:12.381',-1.005
'0:12.383',-1.000
'0:12.386',-1.010
'0:12.389',-1.015
'0:12.392',-1.020
'0:12.394',-1.020
'0:12.397',-1.025
'0:12.400',-1.015
'0:12.403',-0.985
'0:12.406',-0.965
'0:12.408',-0.950
'0:12.411',-0.930
'0:12.414',-0.910
'0:12.417',-0.920
'0:12.419',-0.900
'0:12.422',-0.880
'0:12.425',-0.870
'0:12.428',-0.855
'0:12.431',-0.845
'0:12.433',-0.805
'0:12.436',-0.785
'0:12.439',-0.765
'0:12.442',-0.750
'0:12.444',-0.725
'0:12.447',-0.715
'0:12.450',-0.705
'0:12.453',-0.695
'0:12.456',-0.700
'0:12.458',-0.680
'0:12.461',-0.680
'0:12.464',-0.680
'0:12.467',-0.675
'0:12.469',-0.665
'0:12.472',-0.660
'0:12.475',-0.655
'0:12.478',-0.650
'0:12.481',-0.645
'0:12.483',-0.665
'0:12.486',-0.680
'0:12.489',-0.685
'0:12.492',-0.690
'0:12.494',-0.685
'0:12.497',-0.700
'0:12.500',-0.700
'0:12.503',-0.705
'0:12.506',-0.695
'0:12.508',-0.690
'0:12.511',-0.690
'0:12.514',-0.705
'0:12.517',-0.720
'0:12.519',-0.720
'0:12.522',-0.720
'0:12.525',-0.730
'0:12.528',-0.745
'0:12.531',-0.750
'0:12.533',-0.750
'0:12.536',-0.740
'0:12.539',-0.740
'0:12.542',-0.745
'0:12.544',-0.735
'0:12.547',-0.735
'0:12.550',-0.740
'0:12.553',-0.745
'0:12.556',-0.755
'0:12.558',-0.765
'0:12.561',-0.770
'0:12.564',-0.785
'0:12.567',-0.785
'0:12.569',-0.785
'0:12.572',-0.770
'0:12.575',-0.760
'0:12.578',-0.755
'0:12.581',-0.755
'0:12.583',-0.760
'0:12.586',-0.785
'0:12.589',-0.775
'0:12.592',-0.795
'0:12.594',-0.795
'0:12.597',-0.795
'0:12.600',-0.805
'0:12.603',-0.775
'0:12.606',-0.775
'0:12.608',-0.770
'0:12.611',-0.760
'0:12.614',-0.760
'0:12.617',-0.765
'0:12.619',-0.760
'0:12.622',-0.775
'0:12.625',-0.785
'0:12.628',-0.790
'0:12.631',-0.790
'0:12.633',-0.790
'0:12.636',-0.785
'0:12.639',-0.775
'0:12.642',-0.765
'0:12.644',-0.765
'0:12.647',-0.760
'0:12.650',-0.755
'0:12.653',-0.740
'0:12.656',-0.745
'0:12.658',-0.740
'0:12.661',-0.725
'0:12.664',-0.720
'0:12.667',-0.705
'0:12.669',-0.695
'0:12.672',-0.690
'0:12.675',-0.685
'0:12.678',-0.680
'0:12.681',-0.685
'0:12.683',-0.685
'0:12.686',-0.690
'0:12.689',-0.700
'0:12.692',-0.695
'0:12.694',-0.690
'0:12.697',-0.685
'0:12.700',-0.675
'0:12.703',-0.665
'0:12.706',-0.675
'0:12.708',-0.690
'0:12.711',-0.710
'0:12.714',-0.725
'0:12.717',-0.735
'0:12.719',-0.740
'0:12.722',-0.755
'0:12.725',-0.760
'0:12.728',-0.765
'0:12.731',-0.765
'0:12.733',-0.770
'0:12.736',-0.785
'0:12.739',-0.790
'0:12.742',-0.800
'0:12.744',-0.805
'0:12.747',-0.805
'0:12.750',-0.825
'0:12.753',-0.835
'0:12.756',-0.835
'0:12.758',-0.855
'0:12.761',-0.855
'0:12.764',-0.855
'0:12.767',-0.855
'0:12.769',-0.850
'0:12.772',-0.845
'0:12.775',-0.845
'0:12.778',-0.835
'0:12.781',-0.835
'0:12.783',-0.840
'0:12.786',-0.840
'0:12.789',-0.855
'0:12.792',-0.850
'0:12.794',-0.865
'0:12.797',-0.855
'0:12.800',-0.855
'0:12.803',-0.850
'0:12.806',-0.840
'0:12.808',-0.835
'0:12.811',-0.825
'0:12.814',-0.825
'0:12.817',-0.820
'0:12.819',-0.795
'0:12.822',-0.775
'0:12.825',-0.725
'0:12.828',-0.660
'0:12.831',-0.580
'0:12.833',-0.470
'0:12.836',-0.330
'0:12.839',-0.235
'0:12.842',-0.135
'0:12.844',-0.080
'0:12.847',-0.100
'0:12.850',-0.175
'0:12.853',-0.280
'0:12.856',-0.405
'0:12.858',-0.530
'0:12.861',-0.655
'0:12.864',-0.810
'0:12.867',-0.955
'0:12.869',-1.075
'0:12.872',-1.125
'0:12.875',-1.130
'0:12.878',-1.110
'0:12.881',-1.090
'0:12.883',-1.080
'0:12.886',-1.070
'0:12.889',-1.075
'0:12.892',-1.055
'0:12.894',-1.055
'0:12.897',-1.030
'0:12.900',-0.990
'0:12.903',-0.975
'0:12.906',-0.955
'0:12.908',-0.960
'0:12.911',-0.955
'0:12.914',-0.950
'0:12.917',-0.955
'0:12.919',-0.965
'0:12.922',-0.970
'0:12.925',-0.975
'0:12.928',-0.985
'0:12.931',-1.000
'0:12.933',-0.980
'0:12.936',-0.980
'0:12.939',-0.990
'0:12.942',-0.970
'0:12.944',-0.955
'0:12.947',-0.960
'0:12.950',-0.965
'0:12.953',-0.960
'0:12.956',-0.980
'0:12.958',-0.980
'0:12.961',-0.985
'0:12.964',-0.990
'0:12.967',-0.990
'0:12.969',-0.985
'0:12.972',-0.980
'0:12.975',-0.980
'0:12.978',-0.970
'0:12.981',-0.975
'0:12.983',-0.970
'0:12.986',-0.985
'0:12.989',-0.990
'0:12.992',-0.990
'0:12.994',-1.000
'0:12.997',-1.010
'0:13.000',-1.015
'0:13.003',-1.015
'0:13.006',-1.010
'0:13.008',-1.010
'0:13.011',-1.005
'0:13.014',-1.005
'0:13.017',-1.025
'0:13.019',-1.020
'0:13.022',-1.035
'0:13.025',-1.035
'0:13.028',-1.040
'0:13.031',-1.040
'0:13.033',-1.045
'0:13.036',-1.045
'0:13.039',-1.055
'0:13.042',-1.035
'0:13.044',-1.020
'0:13.047',-1.025
'0:13.050',-1.025
'0:13.053',-1.030
'0:13.056',-1.035
'0:13.058',-1.050
'0:13.061',-1.055
'0:13.064',-1.065
'0:13.067',-1.060
'0:13.069',-1.060
'0:13.072',-1.050
'0:13.075',-1.050
'0:13.078',-1.055
'0:13.081',-1.045
'0:13.083',-1.045
'0:13.086',-1.040
'0:13.089',-1.040
'0:13.092',-1.050
'0:13.094',-1.040
'0:13.097',-1.050
'0:13.100',-1.050
'0:13.103',-1.035
'0:13.106',-1.025
'0:13.108',-1.010
'0:13.111',-0.990
'0:13.114',-0.980
'0:13.117',-0.975
'0:13.119',-0.970
'0:13.122',-0.955
'0:13.125',-0.960
'0:13.128',-0.945
'0:13.131',-0.940
'0:13.133',-0.920
'0:13.136',-0.885
'0:13.139',-0.865
'0:13.142',-0.845
'0:13.144',-0.815
'0:13.147',-0.805
'0:13.150',-0.790
'0:13.153',-0.775
'0:13.156',-0.765
'0:13.158',-0.740
'0:13.161',-0.740
'0:13.164',-0.715
'0:13.167',-0.705
'0:13.169',-0.695
'0:13.172',-0.690
'0:13.175',-0.695
'0:13.178',-0.675
'0:13.181',-0.675
'0:13.183',-0.680
'0:13.186',-0.685
'0:13.189',-0.690
'0:13.192',-0.705
'0:13.194',-0.720
'0:13.197',-0.715
'0:13.200',-0.725
'0:13.203',-0.725
'0:13.206',-0.720
'0:13.208',-0.740
'0:13.211',-0.725
'0:13.214',-0.735
'0:13.217',-0.745
'0:13.219',-0.760
'0:13.222',-0.755
'0:13.225',-0.765
'0:13.228',-0.775
'0:13.231',-0.790
'0:13.233',-0.790
'0:13.236',-0.780
'0:13.239',-0.765
'0:13.242',-0.770
'0:13.244',-0.765
'0:13.247',-0.765
'0:13.250',-0.770
'0:13.253',-0.780
'0:13.256',-0.785
'0:13.258',-0.795
'0:13.261',-0.800
'0:13.264',-0.810
'0:13.267',-0.815
'0:13.269',-0.815
'0:13.272',-0.795
'0:13.275',-0.795
'0:13.278',-0.800
'0:13.281',-0.795
'0:13.283',-0.805
'0:13.286',-0.810
'0:13.289',-0.800
'0:13.292',-0.800
'0:13.294',-0.810
'0:13.297',-0.815
'0:13.300',-0.815
'0:13.303',-0.810
'0:13.306',-0.795
'0:13.308',-0.805
'0:13.311',-0.780
'0:13.314',-0.780
'0:13.317',-0.775
'0:13.319',-0.790
'0:13.322',-0.795
'0:13.325',-0.805
'0:13.328',-0.820
'0:13.331',-0.815
'0:13.333',-0.820
'0:13.336',-0.810
'0:13.339',-0.795
'0:13.342',-0.770
'0:13.344',-0.765
'0:13.347',-0.760
'0:13.350',-0.740
'0:13.353',-0.735
'0:13.356',-0.745
'0:13.358',-0.750
'0:13.361',-0.745
'0:13.364',-0.755
'0:13.367',-0.750
'0:13.369',-0.745
'0:13.372',-0.725
'0:13.375',-0.715
'0:13.378',-0.685
'0:13.381',-0.680
'0:13.383',-0.685
'0:13.386',-0.690
'0:13.389',-0.695
'0:13.392',-0.715
'0:13.394',-0.730
'0:13.397',-0.745
'0:13.400',-0.765
'0:13.403',-0.780
'0:13.406',-0.780
'0:13.408',-0.780
'0:13.411',-0.785
'0:13.414',-0.790
'0:13.417',-0.790
'0:13.419',-0.810
'0:13.422',-0.835
'0:13.425',-0.855
'0:13.428',-0.860
'0:13.431',-0.865
'0:13.433',-0.880
'0:13.436',-0.885
'0:13.439',-0.880
'0:13.442',-0.860
'0:13.444',-0.860
'0:13.447',-0.855
'0:13.450',-0.865
'0:13.453',-0.875
'0:13.456',-0.890
'0:13.458',-0.900
'0:13.461',-0.900
'0:13.464',-0.895
'0:13.467',-0.885
'0:13.469',-0.900
'0:13.472',-0.895
'0:13.475',-0.885
'0:13.478',-0.865
'0:13.481',-0.860
'0:13.483',-0.860
'0:13.486',-0.860
'0:13.489',-0.870
'0:13.492',-0.870
'0:13.494',-0.870
'0:13.497',-0.865
'0:13.500',-0.855
'0:13.503',-0.840
'0:13.506',-0.810
'0:13.508',-0.770
'0:13.511',-0.710
'0:13.514',-0.635
'0:13.517',-0.540
'0:13.519',-0.435
'0:13.522',-0.320
'0:13.525',-0.230
'0:13.528',-0.150
'0:13.531',-0.095
'0:13.533',-0.100
'0:13.536',-0.155
'0:13.539',-0.260
'0:13.542',-0.365
'0:13.544',-0.495
'0:13.547',-0.625
'0:13.550',-0.780
'0:13.553',-0.965
'0:13.556',-1.080
'0:13.558',-1.145
'0:13.561',-1.145
'0:13.564',-1.125
'0:13.567',-1.110
'0:13.569',-1.095
'0:13.572',-1.085
'0:13.575',-1.075
'0:13.578',-1.040
'0:13.581',-1.015
'0:13.583',-0.985
'0:13.586',-0.975
'0:13.589',-0.975
'0:13.592',-0.975
'0:13.594',-1.000
'0:13.597',-1.020
'0:13.600',-1.020
'0:13.603',-1.020
'0:13.606',-0.995
'0:13.608',-0.985
'0:13.611',-0.970
'0:13.614',-0.980
'0:13.617',-0.965
'0:13.619',-0.970
'0:13.622',-1.005
'0:13.625',-1.010
'0:13.628',-1.010
'0:13.631',-1.005
'0:13.633',-1.005
'0:13.636',-0.995
'0:13.639',-0.990
'0:13.642',-1.005
'0:13.644',-0.995
'0:13.647',-0.995
'0:13.650',-1.000
'0:13.653',-1.000
'0:13.656',-1.010
'0:13.658',-1.025
'0:13.661',-1.020
'0:13.664',-1.025
'0:13.667',-1.015
'0:13.669',-1.010
'0:13.672',-1.015
'0:13.675',-1.005
'0:13.678',-1.010
'0:13.681',-1.010
'0:13.683',-1.020
'0:13.686',-1.035
'0:13.689',-1.035
'0:13.692',-1.040
'0:13.694',-1.040
'0:13.697',-1.050
'0:13.700',-1.045
'0:13.703',-1.040
'0:13.706',-1.035
'0:13.708',-1.040
'0:13.711',-1.025
'0:13.714',-1.045
'0:13.717',-1.050
'0:13.719',-1.045
'0:13.722',-1.060
'0:13.725',-1.055
'0:13.728',-1.060
'0:13.731',-1.080
'0:13.733',-1.070
'0:13.736',-1.070
'0:13.739',-1.075
'0:13.742',-1.075
'0:13.744',-1.060
'0:13.747',-1.060
'0:13.750',-1.060
'0:13.753',-1.070
'0:13.756',-1.075
'0:13.758',-1.080
'0:13.761',-1.080
'0:13.764',-1.080
'0:13.767',-1.065
'0:13.769',-1.070
'0:13.772',-1.060
'0:13.775',-1.050
'0:13.778',-1.035
'0:13.781',-1.040
'0:13.783',-1.050
'0:13.786',-1.035
'0:13.789',-1.025
'0:13.792',-1.025
'0:13.794',-1.020
'0:13.797',-1.005
'0:13.800',-0.985
'0:13.803',-0.965
'0:13.806',-0.945
'0:13.808',-0.930
'0:13.811',-0.920
'0:13.814',-0.895
'0:13.817',-0.895
'0:13.819',-0.885
'0:13.822',-0.860
'0:13.825',-0.845
'0:13.828',-0.835
'0:13.831',-0.840
'0:13.833',-0.815
'0:13.836',-0.785
'0:13.839',-0.760
'0:13.842',-0.745
'0:13.844',-0.740
'0:13.847',-0.720
'0:13.850',-0.720
'0:13.853',-0.715
'0:13.856',-0.730
'0:13.858',-0.730
'0:13.861',-0.740
'0:13.864',-0.730
'0:13.867',-0.740
'0:13.869',-0.745
'0:13.872',-0.745
'0:13.875',-0.745
'0:13.878',-0.750
'0:13.881',-0.740
'0:13.883',-0.740
'0:13.886',-0.755
'0:13.889',-0.765
'0:13.892',-0.775
'0:13.894',-0.800
'0:13.897',-0.805
'0:13.900',-0.805
'0:13.903',-0.800
'0:13.906',-0.790
'0:13.908',-0.790
'0:13.911',-0.790
'0:13.914',-0.790
'0:13.917',-0.785
'0:13.919',-0.800
'0:13.922',-0.800
'0:13.925',-0.805
'0:13.928',-0.820
'0:13.931',-0.820
'0:13.933',-0.815
'0:13.936',-0.820
'0:13.939',-0.820
'0:13.942',-0.810
'0:13.944',-0.805
'0:13.947',-0.805
'0:13.950',-0.810
'0:13.953',-0.820
'0:13.956',-0.825
'0:13.958',-0.820
'0:13.961',-0.825
'0:13.964',-0.835
'0:13.967',-0.840
'0:13.969',-0.835
'0:13.972',-0.845
'0:13.975',-0.825
'0:13.978',-0.815
'0:13.981',-0.815
'0:13.983',-0.825
'0:13.986',-0.840
'0:13.989',-0.840
'0:13.992',-0.845
'0:13.994',-0.840
'0:13.997',-0.845
'0:14.000',-0.845
'0:14.003',-0.835
'0:14.006',-0.840
'0:14.008',-0.830
'0:14.011',-0.825
'0:14.014',-0.820
'0:14.017',-0.825
'0:14.019',-0.825
'0:14.022',-0.830
'0:14.025',-0.830
'0:14.028',-0.825
'0:14.031',-0.815
'0:14.033',-0.815
'0:14.036',-0.805
'0:14.039',-0.785
'0:14.042',-0.775
'0:14.044',-0.760
'0:14.047',-0.760
'0:14.050',-0.760
'0:14.053',-0.765
'0:14.056',-0.770
'0:14.058',-0.780
'0:14.061',-0.780
'0:14.064',-0.775
'0:14.067',-0.775
'0:14.069',-0.775
'0:14.072',-0.735
'0:14.075',-0.730
'0:14.078',-0.720
'0:14.081',-0.705
'0:14.083',-0.715
'0:14.086',-0.745
'0:14.089',-0.785
'0:14.092',-0.785
'0:14.094',-0.800
'0:14.097',-0.810
'0:14.100',-0.815
'0:14.103',-0.805
'0:14.106',-0.795
'0:14.108',-0.800
'0:14.111',-0.800
'0:14.114',-0.805
'0:14.117',-0.815
'0:14.119',-0.850
'0:14.122',-0.850
'0:14.125',-0.870
'0:14.128',-0.885
'0:14.131',-0.900
'0:14.133',-0.900
'0:14.136',-0.900
'0:14.139',-0.885
'0:14.142',-0.890
'0:14.144',-0.890
'0:14.147',-0.885
'0:14.150',-0.895
'0:14.153',-0.890
'0:14.156',-0.895
'0:14.158',-0.895
'0:14.161',-0.915
'0:14.164',-0.920
'0:14.167',-0.920
'0:14.169',-0.905
'0:14.172',-0.905
'0:14.175',-0.895
'0:14.178',-0.890
'0:14.181',-0.880
'0:14.183',-0.885
'0:14.186',-0.880
'0:14.189',-0.885
'0:14.192',-0.875
'0:14.194',-0.875
'0:14.197',-0.850
'0:14.200',-0.805
'0:14.203',-0.730
'0:14.206',-0.640
'0:14.208',-0.510
'0:14.211',-0.380
'0:14.214',-0.250
'0:14.217',-0.145
'0:14.219',-0.090
'0:14.222',-0.080
'0:14.225',-0.145
'0:14.228',-0.265
'0:14.231',-0.415
'0:14.233',-0.545
'0:14.236',-0.690
'0:14.239',-0.855
'0:14.242',-1.020
'0:14.244',-1.140
'0:14.247',-1.185
'0:14.250',-1.170
'0:14.253',-1.135
'0:14.256',-1.115
'0:14.258',-1.120
'0:14.261',-1.140
'0:14.264',-1.135
'0:14.267',-1.130
'0:14.269',-1.100
'0:14.272',-1.055
'0:14.275',-1.035
'0:14.278',-0.995
'0:14.281',-0.985
'0:14.283',-0.975
'0:14.286',-0.970
'0:14.289',-0.985
'0:14.292',-1.005
'0:14.294',-1.010
'0:14.297',-1.005
'0:14.300',-1.000
'0:14.303',-1.000
'0:14.306',-0.995
'0:14.308',-0.985
'0:14.311',-0.990
'0:14.314',-0.990
'0:14.317',-0.995
'0:14.319',-1.000
'0:14.322',-1.015
'0:14.325',-1.020
'0:14.328',-1.020
'0:14.331',-1.035
'0:14.333',-1.030
'0:14.336',-1.025
'0:14.339',-1.015
'0:14.342',-1.025
'0:14.344',-1.015
'0:14.347',-1.005
'0:14.350',-1.010
'0:14.353',-1.015
'0:14.356',-1.020
'0:14.358',-1.025
'0:14.361',-1.035
'0:14.364',-1.050
'0:14.367',-1.045
'0:14.369',-1.050
'0:14.372',-1.055
'0:14.375',-1.045
'0:14.378',-1.040
'0:14.381',-1.035
'0:14.383',-1.040
'0:14.386',-1.055
'0:14.389',-1.065
'0:14.392',-1.085
'0:14.394',-1.075
'0:14.397',-1.080
'0:14.400',-1.080
'0:14.403',-1.075
'0:14.406',-1.070
'0:14.408',-1.065
'0:14.411',-1.060
'0:14.414',-1.060
'0:14.417',-1.065
'0:14.419',-1.075
'0:14.422',-1.075
'0:14.425',-1.095
'0:14.428',-1.110
'0:14.431',-1.115
'0:14.433',-1.100
'0:14.436',-1.110
'0:14.439',-1.095
'0:14.442',-1.080
'0:14.444',-1.080
'0:14.447',-1.070
'0:14.450',-1.070
'0:14.453',-1.080
'0:14.456',-1.095
'0:14.458',-1.100
'0:14.461',-1.085
'0:14.464',-1.080
'0:14.467',-1.080
'0:14.469',-1.075
'0:14.472',-1.065
'0:14.475',-1.050
'0:14.478',-1.040
'0:14.481',-1.020
'0:14.483',-1.005
'0:14.486',-0.995
'0:14.489',-0.990
'0:14.492',-0.975
'0:14.494',-0.960
'0:14.497',-0.955
'0:14.500',-0.945
'0:14.503',-0.915
'0:14.506',-0.900
'0:14.508',-0.860
'0:14.511',-0.840
'0:14.514',-0.805
'0:14.517',-0.810
'0:14.519',-0.790
'0:14.522',-0.800
'0:14.525',-0.790
'0:14.528',-0.790
'0:14.531',-0.795
'0:14.533',-0.770
'0:14.536',-0.755
'0:14.539',-0.745
'0:14.542',-0.730
'0:14.544',-0.725
'0:14.547',-0.725
'0:14.550',-0.735
'0:14.553',-0.735
'0:14.556',-0.745
'0:14.558',-0.755
'0:14.561',-0.770
'0:14.564',-0.775
'0:14.567',-0.770
'0:14.569',-0.770
'0:14.572',-0.765
'0:14.575',-0.760
'0:14.578',-0.755
'0:14.581',-0.760
'0:14.583',-0.765
'0:14.586',-0.770
'0:14.589',-0.770
'0:14.592',-0.795
'0:14.594',-0.810
'0:14.597',-0.810
'0:14.600',-0.805
'0:14.603',-0.805
'0:14.606',-0.795
'0:14.608',-0.800
'0:14.611',-0.785
'0:14.614',-0.780
'0:14.617',-0.775
'0:14.619',-0.790
'0:14.622',-0.795
'0:14.625',-0.810
'0:14.628',-0.810
'0:14.631',-0.810
'0:14.633',-0.815
'0:14.636',-0.820
'0:14.639',-0.800
'0:14.642',-0.800
'0:14.644',-0.800
'0:14.647',-0.795
'0:14.650',-0.800
'0:14.653',-0.795
'0:14.656',-0.805
'0:14.658',-0.825
'0:14.661',-0.835
'0:14.664',-0.835
'0:14.667',-0.820
'0:14.669',-0.810
'0:14.672',-0.800
'0:14.675',-0.795
'0:14.678',-0.785
'0:14.681',-0.780
'0:14.683',-0.785
'0:14.686',-0.795
'0:14.689',-0.800
'0:14.692',-0.800
'0:14.694',-0.805
'0:14.697',-0.810
'0:14.700',-0.790
'0:14.703',-0.775
'0:14.706',-0.775
'0:14.708',-0.750
'0:14.711',-0.755
'0:14.714',-0.745
'0:14.717',-0.745
'0:14.719',-0.735
'0:14.722',-0.750
'0:14.725',-0.760
'0:14.728',-0.770
'0:14.731',-0.750
'0:14.733',-0.745
'0:14.736',-0.735
'0:14.739',-0.710
'0:14.742',-0.685
'0:14.744',-0.670
'0:14.747',-0.670
'0:14.750',-0.685
'0:14.753',-0.680
'0:14.756',-0.705
'0:14.758',-0.725
'0:14.761',-0.740
'0:14.764',-0.755
'0:14.767',-0.750
'0:14.769',-0.750
'0:14.772',-0.750
'0:14.775',-0.765
'0:14.778',-0.760
'0:14.781',-0.775
'0:14.783',-0.795
'0:14.786',-0.810
'0:14.789',-0.825
'0:14.792',-0.845
'0:14.794',-0.855
'0:14.797',-0.870
'0:14.800',-0.870
'0:14.803',-0.865
'0:14.806',-0.865
'0:14.808',-0.865
'0:14.811',-0.855
'0:14.814',-0.845
'0:14.817',-0.860
'0:14.819',-0.850
'0:14.822',-0.860
'0:14.825',-0.880
'0:14.828',-0.885
'0:14.831',-0.860
'0:14.833',-0.870
'0:14.836',-0.880
'0:14.839',-0.875
'0:14.842',-0.860
'0:14.844',-0.855
'0:14.847',-0.855
'0:14.850',-0.845
'0:14.853',-0.840
'0:14.856',-0.840
'0:14.858',-0.855
'0:14.861',-0.850
'0:14.864',-0.850
'0:14.867',-0.825
'0:14.869',-0.770
'0:14.872',-0.700
'0:14.875',-0.625
'0:14.878',-0.535
'0:14.881',-0.405
'0:14.883',-0.265
'0:14.886',-0.140
'0:14.889',-0.065
'0:14.892',-0.030
'0:14.894',-0.050
'0:14.897',-0.120
'0:14.900',-0.240
'0:14.903',-0.355
'0:14.906',-0.470
'0:14.908',-0.595
'0:14.911',-0.710
'0:14.914',-0.855
'0:14.917',-0.985
'0:14.919',-1.080
'0:14.922',-1.110
'0:14.925',-1.100
'0:14.928',-1.070
'0:14.931',-1.065
'0:14.933',-1.080
'0:14.936',-1.090
'0:14.939',-1.075
'0:14.942',-1.055
'0:14.944',-1.035
'0:14.947',-1.010
'0:14.950',-0.995
'0:14.953',-0.975
'0:14.956',-0.965
'0:14.958',-0.965
'0:14.961',-0.975
'0:14.964',-0.975
'0:14.967',-0.970
'0:14.969',-0.965
'0:14.972',-0.965
'0:14.975',-0.950
'0:14.978',-0.950
'0:14.981',-0.950
'0:14.983',-0.950
'0:14.986',-0.960
'0:14.989',-0.965
'0:14.992',-0.970
'0:14.994',-0.985
'0:14.997',-0.980
'0:15.000',-0.975
'0:15.003',-0.965
'0:15.006',-0.980
'0:15.008',-0.960
'0:15.011',-0.965
'0:15.014',-0.970
'0:15.017',-0.970
'0:15.019',-0.980
'0:15.022',-1.000
'0:15.025',-0.990
'0:15.028',-0.990
'0:15.031',-1.005
'0:15.033',-1.000
'0:15.036',-0.995
'0:15.039',-0.990
'0:15.042',-0.985
'0:15.044',-0.990
'0:15.047',-0.985
'0:15.050',-0.990
'0:15.053',-1.000
'0:15.056',-1.010
'0:15.058',-0.995
'0:15.061',-1.015
'0:15.064',-1.025
'0:15.067',-1.025
'0:15.069',-1.025
'0:15.072',-1.030
'0:15.075',-1.030
'0:15.078',-1.020
'0:15.081',-1.020
'0:15.083',-1.025
'0:15.086',-1.040
'0:15.089',-1.045
'0:15.092',-1.040
'0:15.094',-1.075
'0:15.097',-1.085
'0:15.100',-1.085
'0:15.103',-1.090
'0:15.106',-1.080
'0:15.108',-1.075
'0:15.111',-1.080
'0:15.114',-1.075
'0:15.117',-1.070
'0:15.119',-1.075
'0:15.122',-1.085
'0:15.125',-1.090
'0:15.128',-1.100
'0:15.131',-1.120
'0:15.133',-1.125
'0:15.136',-1.105
'0:15.139',-1.105
'0:15.142',-1.090
'0:15.144',-1.085
'0:15.147',-1.080
'0:15.150',-1.080
'0:15.153',-1.080
'0:15.156',-1.080
'0:15.158',-1.085
'0:15.161',-1.085
'0:15.164',-1.080
'0:15.167',-1.070
'0:15.169',-1.065
'0:15.172',-1.050
'0:15.175',-1.040
'0:15.178',-1.015
'0:15.181',-1.015
'0:15.183',-1.000
'0:15.186',-0.985
'0:15.189',-0.975
'0:15.192',-0.960
'0:15.194',-0.945
'0:15.197',-0.930
'0:15.200',-0.915
'0:15.203',-0.880
'0:15.206',-0.850
'0:15.208',-0.815
'0:15.211',-0.785
'0:15.214',-0.755
'0:15.217',-0.740
'0:15.219',-0.730
'0:15.222',-0.720
'0:15.225',-0.730
'0:15.228',-0.725
'0:15.231',-0.715
'0:15.233',-0.725
'0:15.236',-0.725
'0:15.239',-0.710
'0:15.242',-0.695
'0:15.244',-0.685
'0:15.247',-0.680
'0:15.250',-0.685
'0:15.253',-0.690
'0:15.256',-0.700
'0:15.258',-0.715
'0:15.261',-0.730
'0:15.264',-0.735
'0:15.267',-0.730
'0:15.269',-0.720
'0:15.272',-0.715
'0:15.275',-0.730
'0:15.278',-0.710
'0:15.281',-0.715
'0:15.283',-0.725
'0:15.286',-0.720
'0:15.289',-0.725
'0:15.292',-0.735
'0:15.294',-0.740
'0:15.297',-0.745
'0:15.300',-0.745
'0:15.303',-0.745
'0:15.306',-0.735
'0:15.308',-0.735
'0:15.311',-0.735
'0:15.314',-0.730
'0:15.317',-0.740
'0:15.319',-0.745
'0:15.322',-0.750
'0:15.325',-0.755
'0:15.328',-0.755
'0:15.331',-0.765
'0:15.333',-0.770
'0:15.336',-0.770
'0:15.339',-0.750
'0:15.342',-0.760
'0:15.344',-0.760
'0:15.347',-0.755
'0:15.350',-0.750
'0:15.353',-0.760
'0:15.356',-0.760
'0:15.358',-0.770
'0:15.361',-0.790
'0:15.364',-0.795
'0:15.367',-0.785
'0:15.369',-0.770
'0:15.372',-0.765
'0:15.375',-0.765
'0:15.378',-0.760
'0:15.381',-0.760
'0:15.383',-0.760
'0:15.386',-0.755
'0:15.389',-0.765
'0:15.392',-0.770
'0:15.394',-0.770
'0:15.397',-0.780
'0:15.400',-0.765
'0:15.403',-0.765
'0:15.406',-0.750
'0:15.408',-0.730
'0:15.411',-0.730
'0:15.414',-0.710
'0:15.417',-0.710
'0:15.419',-0.685
'0:15.422',-0.685
'0:15.425',-0.685
'0:15.428',-0.690
'0:15.431',-0.685
'0:15.433',-0.680
'0:15.436',-0.675
'0:15.439',-0.680
'0:15.442',-0.670
'0:15.444',-0.660
'0:15.447',-0.645
'0:15.450',-0.650
'0:15.453',-0.640
'0:15.456',-0.635
'0:15.458',-0.640
'0:15.461',-0.635
'0:15.464',-0.660
'0:15.467',-0.680
'0:15.469',-0.685
'0:15.472',-0.705
'0:15.475',-0.705
'0:15.478',-0.725
'0:15.481',-0.715
'0:15.483',-0.715
'0:15.486',-0.725
'0:15.489',-0.725
'0:15.492',-0.745
'0:15.494',-0.755
'0:15.497',-0.775
'0:15.500',-0.790
'0:15.503',-0.800
'0:15.506',-0.795
'0:15.508',-0.800
'0:15.511',-0.815
'0:15.514',-0.805
'0:15.517',-0.815
'0:15.519',-0.825
'0:15.522',-0.830
'0:15.525',-0.830
'0:15.528',-0.830
'0:15.531',-0.835
'0:15.533',-0.835
'0:15.536',-0.845
'0:15.539',-0.835
'0:15.542',-0.825
'0:15.544',-0.815
'0:15.547',-0.805
'0:15.550',-0.810
'0:15.553',-0.815
'0:15.556',-0.805
'0:15.558',-0.820
'0:15.561',-0.825
'0:15.564',-0.825
'0:15.567',-0.825
'0:15.569',-0.815
'0:15.572',-0.805
'0:15.575',-0.780
'0:15.578',-0.760
'0:15.581',-0.710
'0:15.583',-0.665
'0:15.586',-0.600
'0:15.589',-0.510
'0:15.592',-0.405
'0:15.594',-0.275
'0:15.597',-0.165
'0:15.600',-0.050
'0:15.603',0.020
'0:15.606',0.020
'0:15.608',-0.050
'0:15.611',-0.195
'0:15.614',-0.350
'0:15.617',-0.545
'0:15.619',-0.745
'0:15.622',-0.930
'0:15.625',-1.045
'0:15.628',-1.095
'0:15.631',-1.085
'0:15.633',-1.050
'0:15.636',-1.000
'0:15.639',-0.945
'0:15.642',-0.930
'0:15.644',-0.900
'0:15.647',-0.905
'0:15.650',-0.915
'0:15.653',-0.925
'0:15.656',-0.945
'0:15.658',-0.940
'0:15.661',-0.950
'0:15.664',-0.940
'0:15.667',-0.935
'0:15.669',-0.940
'0:15.672',-0.925
'0:15.675',-0.930
'0:15.678',-0.930
'0:15.681',-0.925
'0:15.683',-0.930
'0:15.686',-0.925
'0:15.689',-0.950
'0:15.692',-0.955
'0:15.694',-0.955
'0:15.697',-0.960
'0:15.700',-0.960
'0:15.703',-0.955
'0:15.706',-0.955
'0:15.708',-0.950
'0:15.711',-0.945
'0:15.714',-0.940
'0:15.717',-0.940
'0:15.719',-0.940
'0:15.722',-0.950
'0:15.725',-0.960
'0:15.728',-0.960
'0:15.731',-0.965
'0:15.733',-0.975
'0:15.736',-0.980
'0:15.739',-0.970
'0:15.742',-0.970
'0:15.744',-0.965
'0:15.747',-0.965
'0:15.750',-0.970
'0:15.753',-0.980
'0:15.756',-1.010
'0:15.758',-1.020
'0:15.761',-1.000
'0:15.764',-1.010
'0:15.767',-1.015
'0:15.769',-1.005
'0:15.772',-1.005
'0:15.775',-1.005
'0:15.778',-0.995
'0:15.781',-1.010
'0:15.783',-1.010
'0:15.786',-1.015
'0:15.789',-1.025
'0:15.792',-1.035
'0:15.794',-1.040
'0:15.797',-1.045
'0:15.800',-1.055
'0:15.803',-1.055
'0:15.806',-1.060
'0:15.808',-1.045
'0:15.811',-1.045
'0:15.814',-1.050
'0:15.817',-1.060
'0:15.819',-1.070
'0:15.822',-1.075
'0:15.825',-1.085
'0:15.828',-1.090
'0:15.831',-1.085
'0:15.833',-1.090
'0:15.836',-1.085
'0:15.839',-1.090
'0:15.842',-1.080
'0:15.844',-1.065
'0:15.847',-1.050
'0:15.850',-1.050
'0:15.853',-1.060
'0:15.856',-1.045
'0:15.858',-1.050
'0:15.861',-1.050
'0:15.864',-1.035
'0:15.867',-1.040
'0:15.869',-1.025
'0:15.872',-1.010
'0:15.875',-0.985
'0:15.878',-0.970
'0:15.881',-0.945
'0:15.883',-0.925
'0:15.886',-0.915
'0:15.889',-0.895
'0:15.892',-0.890
'0:15.894',-0.880
'0:15.897',-0.855
'0:15.900',-0.830
'0:15.903',-0.815
'0:15.906',-0.785
'0:15.908',-0.755
'0:15.911',-0.745
'0:15.914',-0.710
'0:15.917',-0.715
'0:15.919',-0.710
'0:15.922',-0.700
'0:15.925',-0.695
'0:15.928',-0.700
'0:15.931',-0.700
'0:15.933',-0.705
'0:15.936',-0.700
'0:15.939',-0.695
'0:15.942',-0.695
'0:15.944',-0.695
'0:15.947',-0.685
'0:15.950',-0.695
'0:15.953',-0.705
'0:15.956',-0.710
'0:15.958',-0.720
'0:15.961',-0.730
'0:15.964',-0.720
'0:15.967',-0.725
'0:15.969',-0.730
'0:15.972',-0.730
'0:15.975',-0.720
'0:15.978',-0.720
'0:15.981',-0.715
'0:15.983',-0.720
'0:15.986',-0.730
'0:15.989',-0.745
'0:15.992',-0.740
'0:15.994',-0.750
'0:15.997',-0.745
'0:16.000',-0.755
'0:16.003',-0.760
'0:16.006',-0.760
'0:16.008',-0.745
'0:16.011',-0.740
'0:16.014',-0.735
'0:16.017',-0.740
'0:16.019',-0.760
'0:16.022',-0.760
'0:16.025',-0.765
'0:16.028',-0.770
'0:16.031',-0.775
'0:16.033',-0.775
'0:16.036',-0.785
'0:16.039',-0.780
'0:16.042',-0.770
'0:16.044',-0.765
'0:16.047',-0.760
'0:16.050',-0.765
'0:16.053',-0.770
'0:16.056',-0.770
'0:16.058',-0.780
'0:16.061',-0.785
'0:16.064',-0.800
'0:16.067',-0.800
'0:16.069',-0.795
'0:16.072',-0.780
'0:16.075',-0.780
'0:16.078',-0.770
'0:16.081',-0.780
'0:16.083',-0.770
'0:16.086',-0.765
'0:16.089',-0.770
'0:16.092',-0.775
'0:16.094',-0.765
'0:16.097',-0.765
'0:16.100',-0.755
'0:16.103',-0.740
'0:16.106',-0.725
'0:16.108',-0.710
'0:16.111',-0.700
'0:16.114',-0.680
'0:16.117',-0.680
'0:16.119',-0.675
'0:16.122',-0.685
'0:16.125',-0.710
'0:16.128',-0.700
'0:16.131',-0.705
'0:16.133',-0.705
'0:16.136',-0.695
'0:16.139',-0.675
'0:16.142',-0.655
'0:16.144',-0.650
'0:16.147',-0.640
'0:16.150',-0.650
'0:16.153',-0.670
'0:16.156',-0.680
'0:16.158',-0.710
'0:16.161',-0.730
'0:16.164',-0.745
'0:16.167',-0.760
'0:16.169',-0.760
'0:16.172',-0.750
'0:16.175',-0.740
'0:16.178',-0.740
'0:16.181',-0.740
'0:16.183',-0.770
'0:16.186',-0.770
'0:16.189',-0.810
'0:16.192',-0.815
'0:16.194',-0.825
'0:16.197',-0.835
'0:16.200',-0.845
'0:16.203',-0.855
'0:16.206',-0.855
'0:16.208',-0.840
'0:16.211',-0.835
'0:16.214',-0.830
'0:16.217',-0.840
'0:16.219',-0.840
'0:16.222',-0.845
'0:16.225',-0.845
'0:16.228',-0.850
'0:16.231',-0.850
'0:16.233',-0.860
'0:16.236',-0.865
'0:16.239',-0.855
'0:16.242',-0.840
'0:16.244',-0.835
'0:16.247',-0.820
'0:16.250',-0.825
'0:16.253',-0.825
'0:16.256',-0.830
'0:16.258',-0.845
'0:16.261',-0.835
'0:16.264',-0.835
'0:16.267',-0.820
'0:16.269',-0.780
'0:16.272',-0.710
'0:16.275',-0.640
'0:16.278',-0.545
'0:16.281',-0.420
'0:16.283',-0.295
'0:16.286',-0.165
'0:16.289',-0.065
'0:16.292',-0.010
'0:16.294',-0.010
'0:16.297',-0.085
'0:16.300',-0.210
'0:16.303',-0.350
'0:16.306',-0.480
'0:16.308',-0.615
'0:16.311',-0.780
'0:16.314',-0.915
'0:16.317',-1.035
'0:16.319',-1.100
'0:16.322',-1.110
'0:16.325',-1.085
'0:16.328',-1.065
'0:16.331',-1.040
'0:16.333',-1.010
'0:16.336',-0.980
'0:16.339',-0.965
'0:16.342',-0.965
'0:16.344',-0.960
'0:16.347',-0.950
'0:16.350',-0.955
'0:16.353',-0.950
'0:16.356',-0.950
'0:16.358',-0.950
'0:16.361',-0.955
'0:16.364',-0.960
'0:16.367',-0.955
'0:16.369',-0.960
'0:16.372',-0.970
'0:16.375',-0.960
'0:16.378',-0.960
'0:16.381',-0.960
'0:16.383',-0.955
'0:16.386',-0.960
'0:16.389',-0.960
'0:16.392',-0.975
'0:16.394',-0.985
'0:16.397',-0.990
'0:16.400',-0.985
'0:16.403',-0.990
'0:16.406',-0.990
'0:16.408',-0.985
'0:16.411',-0.975
'0:16.414',-0.955
'0:16.417',-0.975
'0:16.419',-0.970
'0:16.422',-0.985
'0:16.425',-0.985
'0:16.428',-1.000
'0:16.431',-1.005
'0:16.433',-1.010
'0:16.436',-1.015
'0:16.439',-1.010
'0:16.442',-1.005
'0:16.444',-1.010
'0:16.447',-1.010
'0:16.450',-1.025
'0:16.453',-1.025
'0:16.456',-1.025
'0:16.458',-1.040
'0:16.461',-1.040
'0:16.464',-1.050
'0:16.467',-1.055
'0:16.469',-1.060
'0:16.472',-1.060
'0:16.475',-1.065
'0:16.478',-1.065
'0:16.481',-1.050
'0:16.483',-1.055
'0:16.486',-1.070
'0:16.489',-1.075
'0:16.492',-1.080
'0:16.494',-1.090
'0:16.497',-1.105
'0:16.500',-1.105
'0:16.503',-1.115
'0:16.506',-1.105
'0:16.508',-1.100
'0:16.511',-1.105
'0:16.514',-1.100
'0:16.517',-1.095
'0:16.519',-1.110
'0:16.522',-1.115
'0:16.525',-1.125
'0:16.528',-1.130
'0:16.531',-1.120
'0:16.533',-1.130
'0:16.536',-1.125
'0:16.539',-1.110
'0:16.542',-1.105
'0:16.544',-1.090
'0:16.547',-1.095
'0:16.550',-1.080
'0:16.553',-1.075
'0:16.556',-1.080
'0:16.558',-1.080
'0:16.561',-1.080
'0:16.564',-1.070
'0:16.567',-1.065
'0:16.569',-1.060
'0:16.572',-1.040
'0:16.575',-1.020
'0:16.578',-0.985
'0:16.581',-0.955
'0:16.583',-0.945
'0:16.586',-0.915
'0:16.589',-0.900
'0:16.592',-0.885
'0:16.594',-0.875
'0:16.597',-0.855
'0:16.600',-0.835
'0:16.603',-0.810
'0:16.606',-0.785
'0:16.608',-0.765
'0:16.611',-0.765
'0:16.614',-0.740
'0:16.617',-0.730
'0:16.619',-0.720
'0:16.622',-0.725
'0:16.625',-0.750
'0:16.628',-0.735
'0:16.631',-0.740
'0:16.633',-0.740
'0:16.636',-0.735
'0:16.639',-0.735
'0:16.642',-0.735
'0:16.644',-0.735
'0:16.647',-0.725
'0:16.650',-0.740
'0:16.653',-0.755
'0:16.656',-0.745
'0:16.658',-0.755
'0:16.661',-0.770
'0:16.664',-0.765
'0:16.667',-0.775
'0:16.669',-0.775
'0:16.672',-0.765
'0:16.675',-0.765
'0:16.678',-0.765
'0:16.681',-0.760
'0:16.683',-0.755
'0:16.686',-0.770
'0:16.689',-0.780
'0:16.692',-0.785
'0:16.694',-0.790
'0:16.697',-0.795
'0:16.700',-0.795
'0:16.703',-0.795
'0:16.706',-0.790
'0:16.708',-0.790
'0:16.711',-0.780
'0:16.714',-0.770
'0:16.717',-0.775
'0:16.719',-0.775
'0:16.722',-0.785
'0:16.725',-0.800
'0:16.728',-0.805
'0:16.731',-0.815
'0:16.733',-0.820
'0:16.736',-0.825
'0:16.739',-0.820
'0:16.742',-0.805
'0:16.744',-0.790
'0:16.747',-0.790
'0:16.750',-0.785
'0:16.753',-0.785
'0:16.756',-0.790
'0:16.758',-0.795
'0:16.761',-0.800
'0:16.764',-0.800
'0:16.767',-0.800
'0:16.769',-0.795
'0:16.772',-0.795
'0:16.775',-0.780
'0:16.778',-0.775
'0:16.781',-0.765
'0:16.783',-0.755
'0:16.786',-0.760
'0:16.789',-0.760
'0:16.792',-0.750
'0:16.794',-0.745
'0:16.797',-0.735
'0:16.800',-0.725
'0:16.803',-0.710
'0:16.806',-0.705
'0:16.808',-0.695
'0:16.811',-0.685
'0:16.814',-0.690
'0:16.817',-0.690
'0:16.819',-0.695
'0:16.822',-0.695
'0:16.825',-0.675
'0:16.828',-0.680
'0:16.831',-0.680
'0:16.833',-0.685
'0:16.836',-0.705
'0:16.839',-0.715
'0:16.842',-0.725
'0:16.844',-0.745
'0:16.847',-0.745
'0:16.850',-0.740
'0:16.853',-0.750
'0:16.856',-0.740
'0:16.858',-0.760
'0:16.861',-0.780
'0:16.864',-0.800
'0:16.867',-0.820
'0:16.869',-0.830
'0:16.872',-0.840
'0:16.875',-0.845
'0:16.878',-0.845
'0:16.881',-0.845
'0:16.883',-0.850
'0:16.886',-0.855
'0:16.889',-0.860
'0:16.892',-0.865
'0:16.894',-0.865
'0:16.897',-0.870
'0:16.900',-0.875
'0:16.903',-0.875
'0:16.906',-0.865
'0:16.908',-0.870
'0:16.911',-0.855
'0:16.914',-0.845
'0:16.917',-0.840
'0:16.919',-0.845
'0:16.922',-0.845
'0:16.925',-0.855
'0:16.928',-0.855
'0:16.931',-0.860
'0:16.933',-0.870
'0:16.936',-0.850
'0:16.939',-0.850
'0:16.942',-0.830
'0:16.944',-0.810
'0:16.947',-0.770
'0:16.950',-0.705
'0:16.953',-0.635
'0:16.956',-0.535
'0:16.958',-0.425
'0:16.961',-0.290
'0:16.964',-0.185
'0:16.967',-0.095
'0:16.969',-0.040
'0:16.972',-0.060
'0:16.975',-0.140
'0:16.978',-0.260
'0:16.981',-0.385
'0:16.983',-0.525
'0:16.986',-0.675
'0:16.989',-0.840
'0:16.992',-1.000
'0:16.994',-1.110
'0:16.997',-1.160
'0:17.000',-1.160
'0:17.003',-1.125
'0:17.006',-1.085
'0:17.008',-1.030
'0:17.011',-0.995
'0:17.014',-0.970
'0:17.017',-0.970
'0:17.019',-0.960
'0:17.022',-0.955
'0:17.025',-0.965
'0:17.028',-0.960
'0:17.031',-0.970
'0:17.033',-0.965
'0:17.036',-0.975
'0:17.039',-0.970
'0:17.042',-0.960
'0:17.044',-0.955
'0:17.047',-0.960
'0:17.050',-0.950
'0:17.053',-0.955
'0:17.056',-0.970
'0:17.058',-0.990
'0:17.061',-0.995
'0:17.064',-0.995
'0:17.067',-0.995
'0:17.069',-0.985
'0:17.072',-0.985
'0:17.075',-0.975
'0:17.078',-0.970
'0:17.081',-0.965
'0:17.083',-0.975
'0:17.086',-0.975
'0:17.089',-0.990
'0:17.092',-0.995
'0:17.094',-0.990
'0:17.097',-1.000
'0:17.100',-1.025
'0:17.103',-1.020
'0:17.106',-0.995
'0:17.108',-0.995
'0:17.111',-0.990
'0:17.114',-0.990
'0:17.117',-0.990
'0:17.119',-0.995
'0:17.122',-1.010
'0:17.125',-1.020
'0:17.128',-1.020
'0:17.131',-1.040
'0:17.133',-1.045
'0:17.136',-1.040
'0:17.139',-1.040
'0:17.142',-1.040
'0:17.144',-1.040
'0:17.147',-1.030
'0:17.150',-1.030
'0:17.153',-1.035
'0:17.156',-1.050
'0:17.158',-1.060
'0:17.161',-1.075
'0:17.164',-1.065
'0:17.167',-1.075
'0:17.169',-1.080
'0:17.172',-1.075
'0:17.175',-1.070
'0:17.178',-1.070
'0:17.181',-1.070
'0:17.183',-1.065
'0:17.186',-1.075
'0:17.189',-1.090
'0:17.192',-1.095
'0:17.194',-1.095
'0:17.197',-1.100
'0:17.200',-1.100
'0:17.203',-1.100
'0:17.206',-1.085
'0:17.208',-1.085
'0:17.211',-1.070
'0:17.214',-1.065
'0:17.217',-1.050
'0:17.219',-1.050
'0:17.222',-1.055
'0:17.225',-1.055
'0:17.228',-1.050
'0:17.231',-1.045
'0:17.233',-1.040
'0:17.236',-1.035
'0:17.239',-1.005
'0:17.242',-0.995
'0:17.244',-0.965
'0:17.247',-0.935
'0:17.250',-0.925
'0:17.253',-0.905
'0:17.256',-0.890
'0:17.258',-0.895
'0:17.261',-0.860
'0:17.264',-0.850
'0:17.267',-0.835
'0:17.269',-0.810
'0:17.272',-0.800
'0:17.275',-0.780
'0:17.278',-0.755
'0:17.281',-0.740
'0:17.283',-0.725
'0:17.286',-0.730
'0:17.289',-0.720
'0:17.292',-0.725
'0:17.294',-0.730
'0:17.297',-0.730
'0:17.300',-0.725
'0:17.303',-0.725
'0:17.306',-0.720
'0:17.308',-0.710
'0:17.311',-0.705
'0:17.314',-0.715
'0:17.317',-0.725
'0:17.319',-0.725
'0:17.322',-0.735
'0:17.325',-0.740
'0:17.328',-0.760
'0:17.331',-0.750
'0:17.333',-0.755
'0:17.336',-0.755
'0:17.339',-0.755
'0:17.342',-0.755
'0:17.344',-0.750
'0:17.347',-0.745
'0:17.350',-0.745
'0:17.353',-0.745
'0:17.356',-0.765
'0:17.358',-0.770
'0:17.361',-0.780
'0:17.364',-0.775
'0:17.367',-0.770
'0:17.369',-0.775
'0:17.372',-0.770
'0:17.375',-0.770
'0:17.378',-0.760
'0:17.381',-0.760
'0:17.383',-0.760
'0:17.386',-0.765
'0:17.389',-0.775
'0:17.392',-0.785
'0:17.394',-0.780
'0:17.397',-0.800
'0:17.400',-0.795
'0:17.403',-0.795
'0:17.406',-0.795
'0:17.408',-0.790
'0:17.411',-0.785
'0:17.414',-0.790
'0:17.417',-0.780
'0:17.419',-0.780
'0:17.422',-0.790
'0:17.425',-0.790
'0:17.428',-0.805
'0:17.431',-0.815
'0:17.433',-0.810
'0:17.436',-0.795
'0:17.439',-0.805
'0:17.442',-0.800
'0:17.444',-0.805
'0:17.447',-0.785
'0:17.450',-0.780
'0:17.453',-0.780
'0:17.456',-0.780
'0:17.458',-0.770
'0:17.461',-0.775
'0:17.464',-0.780
'0:17.467',-0.775
'0:17.469',-0.760
'0:17.472',-0.750
'0:17.475',-0.735
'0:17.478',-0.730
'0:17.481',-0.700
'0:17.483',-0.700
'0:17.486',-0.685
'0:17.489',-0.690
'0:17.492',-0.720
'0:17.494',-0.715
'0:17.497',-0.710
'0:17.500',-0.715
'0:17.503',-0.705
'0:17.506',-0.705
'0:17.508',-0.690
'0:17.511',-0.675
'0:17.514',-0.655
'0:17.517',-0.650
'0:17.519',-0.650
'0:17.522',-0.655
'0:17.525',-0.670
'0:17.528',-0.690
'0:17.531',-0.720
'0:17.533',-0.735
'0:17.536',-0.755
'0:17.539',-0.755
'0:17.542',-0.755
'0:17.544',-0.745
'0:17.547',-0.735
'0:17.550',-0.750
'0:17.553',-0.755
'0:17.556',-0.765
'0:17.558',-0.785
'0:17.561',-0.815
'0:17.564',-0.830
'0:17.567',-0.845
'0:17.569',-0.840
'0:17.572',-0.850
'0:17.575',-0.845
'0:17.578',-0.845
'0:17.581',-0.850
'0:17.583',-0.845
'0:17.586',-0.850
'0:17.589',-0.845
'0:17.592',-0.855
'0:17.594',-0.855
'0:17.597',-0.860
'0:17.600',-0.880
'0:17.603',-0.870
'0:17.606',-0.865
'0:17.608',-0.865
'0:17.611',-0.855
'0:17.614',-0.850
'0:17.617',-0.850
'0:17.619',-0.860
'0:17.622',-0.860
'0:17.625',-0.870
'0:17.628',-0.865
'0:17.631',-0.855
'0:17.633',-0.860
'0:17.636',-0.850
'0:17.639',-0.850
'0:17.642',-0.830
'0:17.644',-0.785
'0:17.647',-0.750
'0:17.650',-0.685
'0:17.653',-0.615
'0:17.656',-0.505
'0:17.658',-0.390
'0:17.661',-0.260
'0:17.664',-0.160
'0:17.667',-0.095
'0:17.669',-0.075
'0:17.672',-0.145
'0:17.675',-0.220
'0:17.678',-0.355
'0:17.681',-0.475
'0:17.683',-0.595
'0:17.686',-0.725
'0:17.689',-0.890
'0:17.692',-1.050
'0:17.694',-1.145
'0:17.697',-1.180
'0:17.700',-1.170
'0:17.703',-1.150
'0:17.706',-1.115
'0:17.708',-1.085
'0:17.711',-1.055
'0:17.714',-1.010
'0:17.717',-1.005
'0:17.719',-0.995
'0:17.722',-0.980
'0:17.725',-0.970
'0:17.728',-0.970
'0:17.731',-0.950
'0:17.733',-0.950
'0:17.736',-0.960
'0:17.739',-0.955
'0:17.742',-0.945
'0:17.744',-0.945
'0:17.747',-0.945
'0:17.750',-0.935
'0:17.753',-0.950
'0:17.756',-0.945
'0:17.758',-0.965
'0:17.761',-0.955
'0:17.764',-0.980
'0:17.767',-0.975
'0:17.769',-0.975
'0:17.772',-0.970
'0:17.775',-0.965
'0:17.778',-0.955
'0:17.781',-0.950
'0:17.783',-0.945
'0:17.786',-0.950
'0:17.789',-0.955
'0:17.792',-0.955
'0:17.794',-0.960
'0:17.797',-0.985
'0:17.800',-1.000
'0:17.803',-0.995
'0:17.806',-0.985
'0:17.808',-0.985
'0:17.811',-0.960
'0:17.814',-0.960
'0:17.817',-0.965
'0:17.819',-0.970
'0:17.822',-0.975
'0:17.825',-0.980
'0:17.828',-0.995
'0:17.831',-1.005
'0:17.833',-1.020
'0:17.836',-1.010
'0:17.839',-1.015
'0:17.842',-1.005
'0:17.844',-1.005
'0:17.847',-1.000
'0:17.850',-1.005
'0:17.853',-1.005
'0:17.856',-1.020
'0:17.858',-1.035
'0:17.861',-1.035
'0:17.864',-1.040
'0:17.867',-1.055
'0:17.869',-1.050
'0:17.872',-1.055
'0:17.875',-1.050
'0:17.878',-1.055
'0:17.881',-1.045
'0:17.883',-1.065
'0:17.886',-1.060
'0:17.889',-1.065
'0:17.892',-1.085
'0:17.894',-1.095
'0:17.897',-1.090
'0:17.900',-1.095
'0:17.903',-1.090
'0:17.906',-1.090
'0:17.908',-1.075
'0:17.911',-1.080
'0:17.914',-1.060
'0:17.917',-1.070
'0:17.919',-1.055
'0:17.922',-1.045
'0:17.925',-1.045
'0:17.928',-1.045
'0:17.931',-1.045
'0:17.933',-1.030
'0:17.936',-1.030
'0:17.939',-1.020
'0:17.942',-0.990
'0:17.944',-0.975
'0:17.947',-0.965
'0:17.950',-0.940
'0:17.953',-0.930
'0:17.956',-0.920
'0:17.958',-0.905
'0:17.961',-0.885
'0:17.964',-0.870
'0:17.967',-0.850
'0:17.969',-0.830
'0:17.972',-0.800
'0:17.975',-0.770
'0:17.978',-0.755
'0:17.981',-0.750
'0:17.983',-0.730
'0:17.986',-0.720
'0:17.989',-0.720
'0:17.992',-0.715
'0:17.994',-0.720
'0:17.997',-0.725
'0:18.000',-0.735
'0:18.003',-0.730
'0:18.006',-0.725
'0:18.008',-0.720
'0:18.011',-0.705
'0:18.014',-0.705
'0:18.017',-0.700
'0:18.019',-0.715
'0:18.022',-0.715
'0:18.025',-0.730
'0:18.028',-0.735
'0:18.031',-0.745
'0:18.033',-0.750
'0:18.036',-0.750
'0:18.039',-0.750
'0:18.042',-0.755
'0:18.044',-0.755
'0:18.047',-0.760
'0:18.050',-0.755
'0:18.053',-0.760
'0:18.056',-0.755
'0:18.058',-0.770
'0:18.061',-0.775
'0:18.064',-0.790
'0:18.067',-0.795
'0:18.069',-0.785
'0:18.072',-0.775
'0:18.075',-0.770
'0:18.078',-0.765
'0:18.081',-0.760
'0:18.083',-0.770
'0:18.086',-0.780
'0:18.089',-0.785
'0:18.092',-0.780
'0:18.094',-0.785
'0:18.097',-0.800
'0:18.100',-0.810
'0:18.103',-0.790
'0:18.106',-0.800
'0:18.108',-0.805
'0:18.111',-0.785
'0:18.114',-0.790
'0:18.117',-0.785
'0:18.119',-0.785
'0:18.122',-0.790
'0:18.125',-0.795
'0:18.128',-0.795
'0:18.131',-0.800
'0:18.133',-0.795
'0:18.136',-0.795
'0:18.139',-0.795
'0:18.142',-0.785
'0:18.144',-0.790
'0:18.147',-0.790
'0:18.150',-0.785
'0:18.153',-0.780
'0:18.156',-0.765
'0:18.158',-0.785
'0:18.161',-0.785
'0:18.164',-0.795
'0:18.167',-0.800
'0:18.169',-0.790
'0:18.172',-0.760
'0:18.175',-0.745
'0:18.178',-0.720
'0:18.181',-0.695
'0:18.183',-0.690
'0:18.186',-0.690
'0:18.189',-0.680
'0:18.192',-0.690
'0:18.194',-0.695
'0:18.197',-0.710
'0:18.200',-0.710
'0:18.203',-0.710
'0:18.206',-0.715
'0:18.208',-0.700
'0:18.211',-0.680
'0:18.214',-0.660
'0:18.217',-0.650
'0:18.219',-0.655
'0:18.222',-0.670
'0:18.225',-0.695
'0:18.228',-0.720
'0:18.231',-0.745
'0:18.233',-0.755
'0:18.236',-0.775
'0:18.239',-0.770
'0:18.242',-0.755
'0:18.244',-0.755
'0:18.247',-0.755
'0:18.250',-0.760
'0:18.253',-0.790
'0:18.256',-0.805
'0:18.258',-0.820
'0:18.261',-0.840
'0:18.264',-0.860
'0:18.267',-0.860
'0:18.269',-0.855
'0:18.272',-0.855
'0:18.275',-0.850
'0:18.278',-0.840
'0:18.281',-0.830
'0:18.283',-0.840
'0:18.286',-0.835
'0:18.289',-0.840
'0:18.292',-0.840
'0:18.294',-0.850
'0:18.297',-0.850
'0:18.300',-0.855
'0:18.303',-0.860
'0:18.306',-0.875
'0:18.308',-0.840
'0:18.311',-0.840
'0:18.314',-0.830
'0:18.317',-0.840
'0:18.319',-0.840
'0:18.322',-0.840
'0:18.325',-0.835
'0:18.328',-0.840
'0:18.331',-0.840
'0:18.333',-0.825
'0:18.336',-0.805
'0:18.339',-0.765
'0:18.342',-0.720
'0:18.344',-0.635
'0:18.347',-0.535
'0:18.350',-0.405
'0:18.353',-0.275
'0:18.356',-0.150
'0:18.358',-0.090
'0:18.361',-0.055
'0:18.364',-0.125
'0:18.367',-0.225
'0:18.369',-0.355
'0:18.372',-0.475
'0:18.375',-0.625
'0:18.378',-0.750
'0:18.381',-0.900
'0:18.383',-1.045
'0:18.386',-1.125
'0:18.389',-1.160
'0:18.392',-1.165
'0:18.394',-1.145
'0:18.397',-1.125
'0:18.400',-1.100
'0:18.403',-1.090
'0:18.406',-1.070
'0:18.408',-1.035
'0:18.411',-1.010
'0:18.414',-0.995
'0:18.417',-0.970
'0:18.419',-0.950
'0:18.422',-0.940
'0:18.425',-0.940
'0:18.428',-0.945
'0:18.431',-0.965
'0:18.433',-0.975
'0:18.436',-0.960
'0:18.439',-0.960
'0:18.442',-0.960
'0:18.444',-0.955
'0:18.447',-0.945
'0:18.450',-0.935
'0:18.453',-0.945
'0:18.456',-0.950
'0:18.458',-0.955
'0:18.461',-0.965
'0:18.464',-0.965
'0:18.467',-0.970
'0:18.469',-0.980
'0:18.472',-0.965
'0:18.475',-0.970
'0:18.478',-0.960
'0:18.481',-0.955
'0:18.483',-0.955
'0:18.486',-0.950
'0:18.489',-0.965
'0:18.492',-0.975
'0:18.494',-0.980
'0:18.497',-0.985
'0:18.500',-0.990
'0:18.503',-1.000
'0:18.506',-0.995
'0:18.508',-0.995
'0:18.511',-0.990
'0:18.514',-0.985
'0:18.517',-0.995
'0:18.519',-0.995
'0:18.522',-1.005
'0:18.525',-1.010
'0:18.528',-1.010
'0:18.531',-1.020
'0:18.533',-1.020
'0:18.536',-1.025
'0:18.539',-1.010
'0:18.542',-1.025
'0:18.544',-1.025
'0:18.547',-1.035
'0:18.550',-1.030
'0:18.553',-1.045
'0:18.556',-1.035
'0:18.558',-1.050
'0:18.561',-1.050
'0:18.564',-1.065
'0:18.567',-1.065
'0:18.569',-1.065
'0:18.572',-1.060
'0:18.575',-1.065
'0:18.578',-1.060
'0:18.581',-1.055
'0:18.583',-1.045
'0:18.586',-1.065
'0:18.589',-1.065
'0:18.592',-1.065
'0:18.594',-1.080
'0:18.597',-1.080
'0:18.600',-1.080
'0:18.603',-1.070
'0:18.606',-1.070
'0:18.608',-1.055
'0:18.611',-1.045
'0:18.614',-1.050
'0:18.617',-1.030
'0:18.619',-1.025
'0:18.622',-1.030
'0:18.625',-1.030
'0:18.628',-1.025
'0:18.631',-1.015
'0:18.633',-1.000
'0:18.636',-0.980
'0:18.639',-0.970
'0:18.642',-0.935
'0:18.644',-0.910
'0:18.647',-0.880
'0:18.650',-0.855
'0:18.653',-0.840
'0:18.656',-0.830
'0:18.658',-0.800
'0:18.661',-0.795
'0:18.664',-0.790
'0:18.667',-0.765
'0:18.669',-0.755
'0:18.672',-0.735
'0:18.675',-0.720
'0:18.678',-0.720
'0:18.681',-0.710
'0:18.683',-0.700
'0:18.686',-0.695
'0:18.689',-0.695
'0:18.692',-0.710
'0:18.694',-0.710
'0:18.697',-0.715
'0:18.700',-0.710
'0:18.703',-0.715
'0:18.706',-0.710
'0:18.708',-0.700
'0:18.711',-0.705
'0:18.714',-0.710
'0:18.717',-0.710
'0:18.719',-0.710
'0:18.722',-0.730
'0:18.725',-0.735
'0:18.728',-0.740
'0:18.731',-0.755
'0:18.733',-0.755
'0:18.736',-0.770
'0:18.739',-0.760
'0:18.742',-0.750
'0:18.744',-0.755
'0:18.747',-0.740
'0:18.750',-0.740
'0:18.753',-0.735
'0:18.756',-0.750
'0:18.758',-0.765
'0:18.761',-0.765
'0:18.764',-0.770
'0:18.767',-0.785
'0:18.769',-0.785
'0:18.772',-0.790
'0:18.775',-0.775
'0:18.778',-0.775
'0:18.781',-0.775
'0:18.783',-0.770
'0:18.786',-0.770
'0:18.789',-0.775
'0:18.792',-0.780
'0:18.794',-0.780
'0:18.797',-0.790
'0:18.800',-0.790
'0:18.803',-0.795
'0:18.806',-0.790
'0:18.808',-0.790
'0:18.811',-0.780
'0:18.814',-0.770
'0:18.817',-0.775
'0:18.819',-0.775
'0:18.822',-0.780
'0:18.825',-0.790
'0:18.828',-0.800
'0:18.831',-0.800
'0:18.833',-0.815
'0:18.836',-0.810
'0:18.839',-0.805
'0:18.842',-0.795
'0:18.844',-0.780
'0:18.847',-0.775
'0:18.850',-0.765
'0:18.853',-0.775
'0:18.856',-0.780
'0:18.858',-0.790
'0:18.861',-0.795
'0:18.864',-0.800
'0:18.867',-0.795
'0:18.869',-0.775
'0:18.872',-0.765
'0:18.875',-0.740
'0:18.878',-0.720
'0:18.881',-0.710
'0:18.883',-0.715
'0:18.886',-0.705
'0:18.889',-0.715
'0:18.892',-0.700
'0:18.894',-0.710
'0:18.897',-0.715
'0:18.900',-0.715
'0:18.903',-0.720
'0:18.906',-0.705
'0:18.908',-0.700
'0:18.911',-0.690
'0:18.914',-0.670
'0:18.917',-0.660
'0:18.919',-0.670
'0:18.922',-0.685
'0:18.925',-0.705
'0:18.928',-0.715
'0:18.931',-0.740
'0:18.933',-0.765
'0:18.936',-0.780
'0:18.939',-0.765
'0:18.942',-0.755
'0:18.944',-0.750
'0:18.947',-0.755
'0:18.950',-0.760
'0:18.953',-0.770
'0:18.956',-0.800
'0:18.958',-0.830
'0:18.961',-0.840
'0:18.964',-0.875
'0:18.967',-0.880
'0:18.969',-0.870
'0:18.972',-0.865
'0:18.975',-0.870
'0:18.978',-0.865
'0:18.981',-0.860
'0:18.983',-0.845
'0:18.986',-0.855
'0:18.989',-0.855
'0:18.992',-0.865
'0:18.994',-0.870
'0:18.997',-0.860
'0:19.000',-0.870
'0:19.003',-0.865
'0:19.006',-0.855
'0:19.008',-0.850
'0:19.011',-0.850
'0:19.014',-0.835
'0:19.017',-0.850
'0:19.019',-0.855
'0:19.022',-0.845
'0:19.025',-0.855
'0:19.028',-0.855
'0:19.031',-0.870
'0:19.033',-0.850
'0:19.036',-0.845
'0:19.039',-0.825
'0:19.042',-0.775
'0:19.044',-0.710
'0:19.047',-0.615
'0:19.050',-0.505
'0:19.053',-0.375
'0:19.056',-0.270
'0:19.058',-0.170
'0:19.061',-0.125
'0:19.064',-0.125
'0:19.067',-0.210
'0:19.069',-0.335
'0:19.072',-0.480
'0:19.075',-0.620
'0:19.078',-0.760
'0:19.081',-0.910
'0:19.083',-1.045
'0:19.086',-1.135
'0:19.089',-1.170
'0:19.092',-1.175
'0:19.094',-1.165
'0:19.097',-1.130
'0:19.100',-1.125
'0:19.103',-1.095
'0:19.106',-1.075
'0:19.108',-1.050
'0:19.111',-1.020
'0:19.114',-0.995
'0:19.117',-0.970
'0:19.119',-0.945
'0:19.122',-0.940
'0:19.125',-0.960
'0:19.128',-0.975
'0:19.131',-0.985
'0:19.133',-0.980
'0:19.136',-0.980
'0:19.139',-0.975
'0:19.142',-0.955
'0:19.144',-0.960
'0:19.147',-0.950
'0:19.150',-0.935
'0:19.153',-0.940
'0:19.156',-0.945
'0:19.158',-0.955
'0:19.161',-0.965
'0:19.164',-0.970
'0:19.167',-0.975
'0:19.169',-0.975
'0:19.172',-0.975
'0:19.175',-0.975
'0:19.178',-0.965
'0:19.181',-0.990
'0:19.183',-0.965
'0:19.186',-0.965
'0:19.189',-0.975
'0:19.192',-0.975
'0:19.194',-0.990
'0:19.197',-0.995
'0:19.200',-1.005
'0:19.203',-0.995
'0:19.206',-0.985
'0:19.208',-0.990
'0:19.211',-0.990
'0:19.214',-0.990
'0:19.217',-0.985
'0:19.219',-0.990
'0:19.222',-0.990
'0:19.225',-1.000
'0:19.228',-1.020
'0:19.231',-1.030
'0:19.233',-1.040
'0:19.236',-1.050
'0:19.239',-1.045
'0:19.242',-1.045
'0:19.244',-1.035
'0:19.247',-1.020
'0:19.250',-1.025
'0:19.253',-1.040
'0:19.256',-1.050
'0:19.258',-1.065
'0:19.261',-1.055
'0:19.264',-1.065
'0:19.267',-1.070
'0:19.269',-1.070
'0:19.272',-1.085
'0:19.275',-1.080
'0:19.278',-1.080
'0:19.281',-1.070
'0:19.283',-1.075
'0:19.286',-1.070
'0:19.289',-1.095
'0:19.292',-1.090
'0:19.294',-1.090
'0:19.297',-1.100
'0:19.300',-1.090
'0:19.303',-1.100
'0:19.306',-1.095
'0:19.308',-1.075
'0:19.311',-1.065
'0:19.314',-1.060
'0:19.317',-1.055
'0:19.319',-1.055
'0:19.322',-1.060
'0:19.325',-1.055
'0:19.328',-1.055
'0:19.331',-1.055
'0:19.333',-1.040
'0:19.336',-1.035
'0:19.339',-1.015
'0:19.342',-0.990
'0:19.344',-0.975
'0:19.347',-0.940
'0:19.350',-0.920
'0:19.353',-0.895
'0:19.356',-0.885
'0:19.358',-0.870
'0:19.361',-0.855
'0:19.364',-0.840
'0:19.367',-0.820
'0:19.369',-0.815
'0:19.372',-0.790
'0:19.375',-0.770
'0:19.378',-0.750
'0:19.381',-0.740
'0:19.383',-0.725
'0:19.386',-0.735
'0:19.389',-0.720
'0:19.392',-0.720
'0:19.394',-0.725
'0:19.397',-0.725
'0:19.400',-0.750
'0:19.403',-0.740
'0:19.406',-0.740
'0:19.408',-0.735
'0:19.411',-0.745
'0:19.414',-0.740
'0:19.417',-0.735
'0:19.419',-0.735
'0:19.422',-0.740
'0:19.425',-0.750
'0:19.428',-0.755
'0:19.431',-0.780
'0:19.433',-0.785
'0:19.436',-0.785
'0:19.439',-0.780
'0:19.442',-0.775
'0:19.444',-0.795
'0:19.447',-0.790
'0:19.450',-0.790
'0:19.453',-0.790
'0:19.456',-0.795
'0:19.458',-0.805
'0:19.461',-0.815
'0:19.464',-0.815
'0:19.467',-0.825
'0:19.469',-0.825
'0:19.472',-0.815
'0:19.475',-0.820
'0:19.478',-0.805
'0:19.481',-0.800
'0:19.483',-0.800
'0:19.486',-0.800
'0:19.489',-0.815
'0:19.492',-0.805
'0:19.494',-0.820
'0:19.497',-0.820
'0:19.500',-0.825
'0:19.503',-0.825
'0:19.506',-0.830
'0:19.508',-0.820
'0:19.511',-0.820
'0:19.514',-0.820
'0:19.517',-0.815
'0:19.519',-0.830
'0:19.522',-0.835
'0:19.525',-0.830
'0:19.528',-0.830
'0:19.531',-0.840
'0:19.533',-0.840
'0:19.536',-0.835
'0:19.539',-0.835
'0:19.542',-0.835
'0:19.544',-0.825
'0:19.547',-0.820
'0:19.550',-0.800
'0:19.553',-0.815
'0:19.556',-0.820
'0:19.558',-0.830
'0:19.561',-0.820
'0:19.564',-0.835
'0:19.567',-0.825
'0:19.569',-0.810
'0:19.572',-0.805
'0:19.575',-0.785
'0:19.578',-0.770
'0:19.581',-0.765
'0:19.583',-0.740
'0:19.586',-0.740
'0:19.589',-0.735
'0:19.592',-0.740
'0:19.594',-0.735
'0:19.597',-0.755
'0:19.600',-0.755
'0:19.603',-0.745
'0:19.606',-0.745
'0:19.608',-0.730
'0:19.611',-0.725
'0:19.614',-0.725
'0:19.617',-0.700
'0:19.619',-0.705
'0:19.622',-0.690
'0:19.625',-0.705
'0:19.628',-0.750
'0:19.631',-0.770
'0:19.633',-0.785
'0:19.636',-0.800
'0:19.639',-0.805
'0:19.642',-0.805
'0:19.644',-0.790
'0:19.647',-0.780
'0:19.650',-0.780
'0:19.653',-0.800
'0:19.656',-0.810
'0:19.658',-0.840
'0:19.661',-0.860
'0:19.664',-0.885
'0:19.667',-0.890
'0:19.669',-0.900
'0:19.672',-0.900
'0:19.675',-0.895
'0:19.678',-0.885
'0:19.681',-0.880
'0:19.683',-0.885
'0:19.686',-0.880
'0:19.689',-0.885
'0:19.692',-0.885
'0:19.694',-0.910
'0:19.697',-0.910
'0:19.700',-0.905
'0:19.703',-0.900
'0:19.706',-0.895
'0:19.708',-0.905
'0:19.711',-0.880
'0:19.714',-0.870
'0:19.717',-0.875
'0:19.719',-0.860
'0:19.722',-0.865
'0:19.725',-0.870
'0:19.728',-0.875
'0:19.731',-0.885
'0:19.733',-0.890
'0:19.736',-0.895
'0:19.739',-0.895
'0:19.742',-0.870
'0:19.744',-0.840
'0:19.747',-0.780
'0:19.750',-0.720
'0:19.753',-0.645
'0:19.756',-0.550
'0:19.758',-0.440
'0:19.761',-0.330
'0:19.764',-0.235
'0:19.767',-0.165
'0:19.769',-0.135
'0:19.772',-0.170
'0:19.775',-0.265
'0:19.778',-0.380
'0:19.781',-0.495
'0:19.783',-0.620
'0:19.786',-0.755
'0:19.789',-0.900
'0:19.792',-1.070
'0:19.794',-1.170
'0:19.797',-1.215
'0:19.800',-1.215
'0:19.803',-1.185
'0:19.806',-1.175
'0:19.808',-1.140
'0:19.811',-1.100
'0:19.814',-1.105
'0:19.817',-1.080
'0:19.819',-1.065
'0:19.822',-1.055
'0:19.825',-1.045
'0:19.828',-1.025
'0:19.831',-1.025
'0:19.833',-1.005
'0:19.836',-0.990
'0:19.839',-0.990
'0:19.842',-0.985
'0:19.844',-0.975
'0:19.847',-0.980
'0:19.850',-0.980
'0:19.853',-0.975
'0:19.856',-0.980
'0:19.858',-0.990
'0:19.861',-1.000
'0:19.864',-1.010
'0:19.867',-1.015
'0:19.869',-1.015
'0:19.872',-1.010
'0:19.875',-1.010
'0:19.878',-1.000
'0:19.881',-0.995
'0:19.883',-1.000
'0:19.886',-1.000
'0:19.889',-1.005
'0:19.892',-1.025
'0:19.894',-1.015
'0:19.897',-1.020
'0:19.900',-1.035
'0:19.903',-1.040
'0:19.906',-1.040
'0:19.908',-1.015
'0:19.911',-1.015
'0:19.914',-1.010
'0:19.917',-1.000
'0:19.919',-1.020
'0:19.922',-1.020
'0:19.925',-1.030
'0:19.928',-1.040
'0:19.931',-1.045
'0:19.933',-1.055
'0:19.936',-1.070
'0:19.939',-1.055
'0:19.942',-1.050
'0:19.944',-1.050
'0:19.947',-1.050
'0:19.950',-1.040
'0:19.953',-1.040
'0:19.956',-1.045
'0:19.958',-1.055
'0:19.961',-1.075
'0:19.964',-1.085
'0:19.967',-1.085
'0:19.969',-1.085
'0:19.972',-1.090
'0:19.975',-1.110
'0:19.978',-1.105
'0:19.981',-1.095
'0:19.983',-1.080
'0:19.986',-1.090
'0:19.989',-1.090
'0:19.992',-1.100
'0:19.994',-1.110
'0:19.997',-1.115
'0:20.000',-1.115
'0:20.003',-1.120
'0:20.006',-1.120
'0:20.008',-1.115
'0:20.011',-1.105
'0:20.014',-1.100
'0:20.017',-1.095
'0:20.019',-1.085
'0:20.022',-1.085
'0:20.025',-1.080
'0:20.028',-1.090
'0:20.031',-1.090
'0:20.033',-1.090
'0:20.036',-1.080
'0:20.039',-1.070
'0:20.042',-1.065
'0:20.044',-1.050
'0:20.047',-1.045
'0:20.050',-1.025
'0:20.053',-1.030
'0:20.056',-1.005
'0:20.058',-0.995
'0:20.061',-0.995
'0:20.064',-0.970
'0:20.067',-0.945
'0:20.069',-0.930
'0:20.072',-0.905
'0:20.075',-0.865
'0:20.078',-0.830
'0:20.081',-0.810
'0:20.083',-0.785
'0:20.086',-0.765
'0:20.089',-0.755
'0:20.092',-0.750
'0:20.094',-0.740
'0:20.097',-0.735
'0:20.100',-0.740
'0:20.103',-0.735
'0:20.106',-0.730
'0:20.108',-0.720
'0:20.111',-0.715
'0:20.114',-0.710
'0:20.117',-0.705
'0:20.119',-0.720
'0:20.122',-0.740
'0:20.125',-0.745
'0:20.128',-0.735
'0:20.131',-0.760
'0:20.133',-0.760
'0:20.136',-0.775
'0:20.139',-0.795
'0:20.142',-0.770
'0:20.144',-0.770
'0:20.147',-0.770
'0:20.150',-0.755
'0:20.153',-0.755
'0:20.156',-0.770
'0:20.158',-0.760
'0:20.161',-0.780
'0:20.164',-0.790
'0:20.167',-0.800
'0:20.169',-0.800
'0:20.172',-0.800
'0:20.175',-0.800
'0:20.178',-0.790
'0:20.181',-0.790
'0:20.183',-0.780
'0:20.186',-0.790
'0:20.189',-0.790
'0:20.192',-0.805
'0:20.194',-0.815
'0:20.197',-0.815
'0:20.200',-0.825
'0:20.203',-0.835
'0:20.206',-0.820
'0:20.208',-0.820
'0:20.211',-0.800
'0:20.214',-0.800
'0:20.217',-0.795
'0:20.219',-0.805
'0:20.222',-0.810
'0:20.225',-0.825
'0:20.228',-0.820
'0:20.231',-0.830
'0:20.233',-0.825
'0:20.236',-0.835
'0:20.239',-0.830
'0:20.242',-0.830
'0:20.244',-0.825
'0:20.247',-0.820
'0:20.250',-0.825
'0:20.253',-0.820
'0:20.256',-0.825
'0:20.258',-0.820
'0:20.261',-0.825
'0:20.264',-0.830
'0:20.267',-0.840
'0:20.269',-0.855
'0:20.272',-0.840
'0:20.275',-0.830
'0:20.278',-0.815
'0:20.281',-0.815
'0:20.283',-0.805
'0:20.286',-0.810
'0:20.289',-0.800
'0:20.292',-0.810
'0:20.294',-0.810
'0:20.297',-0.805
'0:20.300',-0.805
'0:20.303',-0.795
'0:20.306',-0.785
'0:20.308',-0.765
'0:20.311',-0.740
'0:20.314',-0.740
'0:20.317',-0.715
'0:20.319',-0.720
'0:20.322',-0.730
'0:20.325',-0.740
'0:20.328',-0.745
'0:20.331',-0.755
'0:20.333',-0.750
'0:20.336',-0.735
'0:20.339',-0.720
'0:20.342',-0.705
'0:20.344',-0.700
'0:20.347',-0.695
'0:20.350',-0.705
'0:20.353',-0.715
'0:20.356',-0.740
'0:20.358',-0.765
'0:20.361',-0.775
'0:20.364',-0.780
'0:20.367',-0.795
'0:20.369',-0.795
'0:20.372',-0.800
'0:20.375',-0.785
'0:20.378',-0.795
'0:20.381',-0.795
'0:20.383',-0.805
'0:20.386',-0.825
'0:20.389',-0.850
'0:20.392',-0.865
'0:20.394',-0.875
'0:20.397',-0.885
'0:20.400',-0.890
'0:20.403',-0.905
'0:20.406',-0.890
'0:20.408',-0.880
'0:20.411',-0.875
'0:20.414',-0.880
'0:20.417',-0.870
'0:20.419',-0.865
'0:20.422',-0.870
'0:20.425',-0.880
'0:20.428',-0.885
'0:20.431',-0.895
'0:20.433',-0.900
'0:20.436',-0.890
'0:20.439',-0.885
'0:20.442',-0.880
'0:20.444',-0.875
'0:20.447',-0.875
'0:20.450',-0.875
'0:20.453',-0.865
'0:20.456',-0.880
'0:20.458',-0.875
'0:20.461',-0.875
'0:20.464',-0.885
'0:20.467',-0.890
'0:20.469',-0.870
'0:20.472',-0.860
'0:20.475',-0.785
'0:20.478',-0.715
'0:20.481',-0.620
'0:20.483',-0.485
'0:20.486',-0.355
'0:20.489',-0.235
'0:20.492',-0.125
'0:20.494',-0.120
'0:20.497',-0.180
'0:20.500',-0.315
'0:20.503',-0.465
'0:20.506',-0.635
'0:20.508',-0.810
'0:20.511',-0.990
'0:20.514',-1.130
'0:20.517',-1.190
'0:20.519',-1.200
'0:20.522',-1.185
'0:20.525',-1.165
'0:20.528',-1.145
'0:20.531',-1.130
'0:20.533',-1.105
'0:20.536',-1.085
'0:20.539',-1.075
'0:20.542',-1.050
'0:20.544',-1.025
'0:20.547',-1.000
'0:20.550',-0.970
'0:20.553',-0.965
'0:20.556',-0.975
'0:20.558',-0.980
'0:20.561',-0.990
'0:20.564',-0.985
'0:20.567',-1.000
'0:20.569',-1.000
'0:20.572',-1.000
'0:20.575',-0.995
'0:20.578',-0.980
'0:20.581',-0.980
'0:20.583',-0.960
'0:20.586',-0.970
'0:20.589',-0.990
'0:20.592',-0.990
'0:20.594',-0.990
'0:20.597',-1.000
'0:20.600',-0.995
'0:20.603',-1.005
'0:20.606',-1.000
'0:20.608',-1.005
'0:20.611',-0.985
'0:20.614',-0.990
'0:20.617',-0.975
'0:20.619',-0.995
'0:20.622',-1.005
'0:20.625',-0.995
'0:20.628',-1.015
'0:20.631',-1.015
'0:20.633',-1.025
'0:20.636',-1.030
'0:20.639',-1.030
'0:20.642',-1.025
'0:20.644',-1.020
'0:20.647',-1.020
'0:20.650',-1.015
'0:20.653',-1.025
'0:20.656',-1.020
'0:20.658',-1.030
'0:20.661',-1.045
'0:20.664',-1.065
'0:20.667',-1.070
'0:20.669',-1.075
'0:20.672',-1.075
'0:20.675',-1.065
'0:20.678',-1.075
'0:20.681',-1.075
'0:20.683',-1.050
'0:20.686',-1.060
'0:20.689',-1.075
'0:20.692',-1.075
'0:20.694',-1.085
'0:20.697',-1.105
'0:20.700',-1.110
'0:20.703',-1.105
'0:20.706',-1.105
'0:20.708',-1.100
'0:20.711',-1.090
'0:20.714',-1.080
'0:20.717',-1.085
'0:20.719',-1.085
'0:20.722',-1.100
'0:20.725',-1.105
'0:20.728',-1.105
'0:20.731',-1.105
'0:20.733',-1.115
'0:20.736',-1.120
'0:20.739',-1.090
'0:20.742',-1.095
'0:20.744',-1.075
'0:20.747',-1.065
'0:20.750',-1.050
'0:20.753',-1.050
'0:20.756',-1.050
'0:20.758',-1.050
'0:20.761',-1.045
'0:20.764',-1.055
'0:20.767',-1.040
'0:20.769',-1.020
'0:20.772',-0.995
'0:20.775',-0.975
'0:20.778',-0.940
'0:20.781',-0.930
'0:20.783',-0.905
'0:20.786',-0.885
'0:20.789',-0.860
'0:20.792',-0.850
'0:20.794',-0.835
'0:20.797',-0.825
'0:20.800',-0.805
'0:20.803',-0.790
'0:20.806',-0.780
'0:20.808',-0.760
'0:20.811',-0.750
'0:20.814',-0.740
'0:20.817',-0.725
'0:20.819',-0.730
'0:20.822',-0.740
'0:20.825',-0.735
'0:20.828',-0.750
'0:20.831',-0.750
'0:20.833',-0.765
'0:20.836',-0.775
'0:20.839',-0.775
'0:20.842',-0.765
'0:20.844',-0.765
'0:20.847',-0.760
'0:20.850',-0.760
'0:20.853',-0.760
'0:20.856',-0.770
'0:20.858',-0.775
'0:20.861',-0.795
'0:20.864',-0.795
'0:20.867',-0.800
'0:20.869',-0.810
'0:20.872',-0.805
'0:20.875',-0.815
'0:20.878',-0.795
'0:20.881',-0.800
'0:20.883',-0.790
'0:20.886',-0.795
'0:20.889',-0.800
'0:20.892',-0.805
'0:20.894',-0.815
'0:20.897',-0.820
'0:20.900',-0.825
'0:20.903',-0.840
'0:20.906',-0.825
'0:20.908',-0.835
'0:20.911',-0.825
'0:20.914',-0.825
'0:20.917',-0.810
'0:20.919',-0.815
'0:20.922',-0.815
'0:20.925',-0.820
'0:20.928',-0.830
'0:20.931',-0.825
'0:20.933',-0.845
'0:20.936',-0.845
'0:20.939',-0.850
'0:20.942',-0.855
'0:20.944',-0.835
'0:20.947',-0.840
'0:20.950',-0.840
'0:20.953',-0.840
'0:20.956',-0.840
'0:20.958',-0.855
'0:20.961',-0.855
'0:20.964',-0.840
'0:20.967',-0.850
'0:20.969',-0.845
'0:20.972',-0.850
'0:20.975',-0.835
'0:20.978',-0.825
'0:20.981',-0.820
'0:20.983',-0.815
'0:20.986',-0.815
'0:20.989',-0.825
'0:20.992',-0.830
'0:20.994',-0.840
'0:20.997',-0.845
'0:21.000',-0.855
'0:21.003',-0.850
'0:21.006',-0.850
'0:21.008',-0.835
'0:21.011',-0.810
'0:21.014',-0.805
'0:21.017',-0.785
'0:21.019',-0.760
'0:21.022',-0.765
'0:21.025',-0.750
'0:21.028',-0.760
'0:21.031',-0.760
'0:21.033',-0.755
'0:21.036',-0.765
'0:21.039',-0.760
'0:21.042',-0.755
'0:21.044',-0.750
'0:21.047',-0.735
'0:21.050',-0.725
'0:21.053',-0.720
'0:21.056',-0.705
'0:21.058',-0.705
'0:21.061',-0.735
'0:21.064',-0.750
'0:21.067',-0.770
'0:21.069',-0.790
'0:21.072',-0.805
'0:21.075',-0.795
'0:21.078',-0.795
'0:21.081',-0.795
'0:21.083',-0.785
'0:21.086',-0.790
'0:21.089',-0.805
'0:21.092',-0.830
'0:21.094',-0.845
'0:21.097',-0.860
'0:21.100',-0.890
'0:21.103',-0.905
'0:21.106',-0.910
'0:21.108',-0.910
'0:21.111',-0.910
'0:21.114',-0.905
'0:21.117',-0.890
'0:21.119',-0.895
'0:21.122',-0.895
'0:21.125',-0.890
'0:21.128',-0.905
'0:21.131',-0.910
'0:21.133',-0.920
'0:21.136',-0.910
'0:21.139',-0.910
'0:21.142',-0.905
'0:21.144',-0.900
'0:21.147',-0.895
'0:21.150',-0.885
'0:21.153',-0.890
'0:21.156',-0.895
'0:21.158',-0.895
'0:21.161',-0.900
'0:21.164',-0.900
'0:21.167',-0.900
'0:21.169',-0.905
'0:21.172',-0.900
'0:21.175',-0.880
'0:21.178',-0.860
'0:21.181',-0.830
'0:21.183',-0.755
'0:21.186',-0.685
'0:21.189',-0.600
'0:21.192',-0.490
'0:21.194',-0.375
'0:21.197',-0.270
'0:21.200',-0.180
'0:21.203',-0.140
'0:21.206',-0.160
'0:21.208',-0.245
'0:21.211',-0.355
'0:21.214',-0.480
'0:21.217',-0.595
'0:21.219',-0.730
'0:21.222',-0.880
'0:21.225',-1.040
'0:21.228',-1.160
'0:21.231',-1.215
'0:21.233',-1.210
'0:21.236',-1.200
'0:21.239',-1.185
'0:21.242',-1.175
'0:21.244',-1.145
'0:21.247',-1.140
'0:21.250',-1.120
'0:21.253',-1.090
'0:21.256',-1.070
'0:21.258',-1.055
'0:21.261',-1.030
'0:21.264',-1.025
'0:21.267',-1.020
'0:21.269',-1.020
'0:21.272',-1.030
'0:21.275',-1.025
'0:21.278',-1.020
'0:21.281',-1.015
'0:21.283',-1.005
'0:21.286',-0.995
'0:21.289',-0.995
'0:21.292',-0.995
'0:21.294',-1.005
'0:21.297',-1.020
'0:21.300',-1.040
'0:21.303',-1.030
'0:21.306',-1.030
'0:21.308',-1.035
'0:21.311',-1.035
'0:21.314',-1.020
'0:21.317',-1.010
'0:21.319',-1.030
'0:21.322',-1.020
'0:21.325',-1.035
'0:21.328',-1.040
'0:21.331',-1.045
'0:21.333',-1.045
'0:21.336',-1.055
'0:21.339',-1.060
'0:21.342',-1.055
'0:21.344',-1.045
'0:21.347',-1.045
'0:21.350',-1.045
'0:21.353',-1.055
'0:21.356',-1.060
'0:21.358',-1.065
'0:21.361',-1.070
'0:21.364',-1.070
'0:21.367',-1.090
'0:21.369',-1.085
'0:21.372',-1.085
'0:21.375',-1.075
'0:21.378',-1.085
'0:21.381',-1.075
'0:21.383',-1.070
'0:21.386',-1.075
'0:21.389',-1.085
'0:21.392',-1.080
'0:21.394',-1.095
'0:21.397',-1.100
'0:21.400',-1.100
'0:21.403',-1.110
'0:21.406',-1.110
'0:21.408',-1.110
'0:21.411',-1.105
'0:21.414',-1.100
'0:21.417',-1.100
'0:21.419',-1.100
'0:21.422',-1.095
'0:21.425',-1.120
'0:21.428',-1.120
'0:21.431',-1.135
'0:21.433',-1.130
'0:21.436',-1.135
'0:21.439',-1.135
'0:21.442',-1.120
'0:21.444',-1.115
'0:21.447',-1.110
'0:21.450',-1.110
'0:21.453',-1.095
'0:21.456',-1.090
'0:21.458',-1.090
'0:21.461',-1.095
'0:21.464',-1.100
'0:21.467',-1.100
'0:21.469',-1.100
'0:21.472',-1.090
'0:21.475',-1.070
'0:21.478',-1.050
'0:21.481',-1.025
'0:21.483',-1.015
'0:21.486',-1.000
'0:21.489',-0.980
'0:21.492',-0.950
'0:21.494',-0.950
'0:21.497',-0.930
'0:21.500',-0.910
'0:21.503',-0.890
'0:21.506',-0.855
'0:21.508',-0.835
'0:21.511',-0.805
'0:21.514',-0.785
'0:21.517',-0.780
'0:21.519',-0.770
'0:21.522',-0.770
'0:21.525',-0.760
'0:21.528',-0.780
'0:21.531',-0.780
'0:21.533',-0.780
'0:21.536',-0.795
'0:21.539',-0.785
'0:21.542',-0.775
'0:21.544',-0.770
'0:21.547',-0.765
'0:21.550',-0.770
'0:21.553',-0.780
'0:21.556',-0.790
'0:21.558',-0.790
'0:21.561',-0.805
'0:21.564',-0.820
'0:21.567',-0.825
'0:21.569',-0.835
'0:21.572',-0.845
'0:21.575',-0.830
'0:21.578',-0.830
'0:21.581',-0.825
'0:21.583',-0.820
'0:21.586',-0.815
'0:21.589',-0.825
'0:21.592',-0.825
'0:21.594',-0.830
'0:21.597',-0.835
'0:21.600',-0.840
'0:21.603',-0.845
'0:21.606',-0.855
'0:21.608',-0.850
'0:21.611',-0.855
'0:21.614',-0.850
'0:21.617',-0.845
'0:21.619',-0.845
'0:21.622',-0.855
'0:21.625',-0.870
'0:21.628',-0.875
'0:21.631',-0.880
'0:21.633',-0.885
'0:21.636',-0.875
'0:21.639',-0.875
'0:21.642',-0.870
'0:21.644',-0.860
'0:21.647',-0.865
'0:21.650',-0.865
'0:21.653',-0.860
'0:21.656',-0.860
'0:21.658',-0.865
'0:21.661',-0.870
'0:21.664',-0.880
'0:21.667',-0.890
'0:21.669',-0.890
'0:21.672',-0.895
'0:21.675',-0.880
'0:21.678',-0.880
'0:21.681',-0.880
'0:21.683',-0.855
'0:21.686',-0.860
'0:21.689',-0.860
'0:21.692',-0.860
'0:21.694',-0.870
'0:21.697',-0.870
'0:21.700',-0.885
'0:21.703',-0.885
'0:21.706',-0.870
'0:21.708',-0.870
'0:21.711',-0.850
'0:21.714',-0.855
'0:21.717',-0.835
'0:21.719',-0.820
'0:21.722',-0.810
'0:21.725',-0.805
'0:21.728',-0.805
'0:21.731',-0.805
'0:21.733',-0.815
'0:21.736',-0.815
'0:21.739',-0.805
'0:21.742',-0.790
'0:21.744',-0.785
'0:21.747',-0.775
'0:21.750',-0.770
'0:21.753',-0.770
'0:21.756',-0.760
'0:21.758',-0.745
'0:21.761',-0.755
'0:21.764',-0.770
'0:21.767',-0.780
'0:21.769',-0.790
'0:21.772',-0.810
'0:21.775',-0.810
'0:21.778',-0.810
'0:21.781',-0.825
'0:21.783',-0.825
'0:21.786',-0.815
'0:21.789',-0.825
'0:21.792',-0.835
'0:21.794',-0.850
'0:21.797',-0.860
'0:21.800',-0.890
'0:21.803',-0.925
'0:21.806',-0.910
'0:21.808',-0.920
'0:21.811',-0.915
'0:21.814',-0.915
'0:21.817',-0.905
'0:21.819',-0.915
'0:21.822',-0.925
'0:21.825',-0.920
'0:21.828',-0.935
'0:21.831',-0.935
'0:21.833',-0.935
'0:21.836',-0.935
'0:21.839',-0.940
'0:21.842',-0.925
'0:21.844',-0.915
'0:21.847',-0.915
'0:21.850',-0.915
'0:21.853',-0.915
'0:21.856',-0.915
'0:21.858',-0.925
'0:21.861',-0.920
'0:21.864',-0.920
'0:21.867',-0.930
'0:21.869',-0.925
'0:21.872',-0.925
'0:21.875',-0.925
'0:21.878',-0.915
'0:21.881',-0.910
'0:21.883',-0.895
'0:21.886',-0.850
'0:21.889',-0.810
'0:21.892',-0.735
'0:21.894',-0.645
'0:21.897',-0.535
'0:21.900',-0.430
'0:21.903',-0.305
'0:21.906',-0.205
'0:21.908',-0.160
'0:21.911',-0.185
'0:21.914',-0.260
'0:21.917',-0.380
'0:21.919',-0.510
'0:21.922',-0.655
'0:21.925',-0.830
'0:21.928',-0.990
'0:21.931',-1.125
'0:21.933',-1.195
'0:21.936',-1.185
'0:21.939',-1.155
'0:21.942',-1.130
'0:21.944',-1.125
'0:21.947',-1.120
'0:21.950',-1.120
'0:21.953',-1.120
'0:21.956',-1.105
'0:21.958',-1.075
'0:21.961',-1.055
'0:21.964',-1.045
'0:21.967',-1.045
'0:21.969',-1.030
'0:21.972',-1.025
'0:21.975',-1.015
'0:21.978',-1.030
'0:21.981',-1.025
'0:21.983',-1.040
'0:21.986',-1.025
'0:21.989',-1.025
'0:21.992',-1.030
'0:21.994',-1.030
'0:21.997',-1.030
'0:22.000',-1.035
'0:22.003',-1.040
'0:22.006',-1.035
'0:22.008',-1.025
'0:22.011',-1.015
'0:22.014',-1.020
'0:22.017',-1.025
'0:22.019',-1.015
'0:22.022',-1.015
'0:22.025',-1.030
'0:22.028',-1.035
'0:22.031',-1.045
'0:22.033',-1.065
'0:22.036',-1.075
'0:22.039',-1.075
'0:22.042',-1.070
'0:22.044',-1.060
'0:22.047',-1.055
'0:22.050',-1.045
'0:22.053',-1.060
'0:22.056',-1.060
'0:22.058',-1.070
'0:22.061',-1.075
'0:22.064',-1.085
'0:22.067',-1.090
'0:22.069',-1.100
'0:22.072',-1.095
'0:22.075',-1.095
'0:22.078',-1.100
'0:22.081',-1.085
'0:22.083',-1.080
'0:22.086',-1.085
'0:22.089',-1.095
'0:22.092',-1.090
'0:22.094',-1.110
'0:22.097',-1.115
'0:22.100',-1.135
'0:22.103',-1.135
'0:22.106',-1.140
'0:22.108',-1.145
'0:22.111',-1.130
'0:22.114',-1.130
'0:22.117',-1.125
'0:22.119',-1.120
'0:22.122',-1.135
'0:22.125',-1.130
'0:22.128',-1.140
'0:22.131',-1.140
'0:22.133',-1.140
'0:22.136',-1.155
'0:22.139',-1.150
'0:22.142',-1.145
'0:22.144',-1.135
'0:22.147',-1.140
'0:22.150',-1.130
'0:22.153',-1.125
'0:22.156',-1.125
'0:22.158',-1.125
'0:22.161',-1.120
'0:22.164',-1.125
'0:22.167',-1.120
'0:22.169',-1.120
'0:22.172',-1.100
'0:22.175',-1.095
'0:22.178',-1.085
'0:22.181',-1.065
'0:22.183',-1.045
'0:22.186',-1.035
'0:22.189',-1.020
'0:22.192',-1.010
'0:22.194',-1.010
'0:22.197',-0.990
'0:22.200',-0.995
'0:22.203',-0.980
'0:22.206',-0.945
'0:22.208',-0.920
'0:22.211',-0.900
'0:22.214',-0.875
'0:22.217',-0.865
'0:22.219',-0.845
'0:22.222',-0.825
'0:22.225',-0.820
'0:22.228',-0.820
'0:22.231',-0.810
'0:22.233',-0.810
'0:22.236',-0.805
'0:22.239',-0.795
'0:22.242',-0.780
'0:22.244',-0.770
'0:22.247',-0.760
'0:22.250',-0.770
'0:22.253',-0.755
'0:22.256',-0.765
'0:22.258',-0.780
'0:22.261',-0.780
'0:22.264',-0.800
'0:22.267',-0.790
'0:22.269',-0.790
'0:22.272',-0.800
'0:22.275',-0.800
'0:22.278',-0.810
'0:22.281',-0.800
'0:22.283',-0.790
'0:22.286',-0.790
'0:22.289',-0.800
'0:22.292',-0.820
'0:22.294',-0.840
'0:22.297',-0.845
'0:22.300',-0.845
'0:22.303',-0.835
'0:22.306',-0.835
'0:22.308',-0.840
'0:22.311',-0.830
'0:22.314',-0.840
'0:22.317',-0.835
'0:22.319',-0.835
'0:22.322',-0.840
'0:22.325',-0.830
'0:22.328',-0.850
'0:22.331',-0.850
'0:22.333',-0.860
'0:22.336',-0.855
'0:22.339',-0.870
'0:22.342',-0.865
'0:22.344',-0.870
'0:22.347',-0.855
'0:22.350',-0.850
'0:22.353',-0.845
'0:22.356',-0.845
'0:22.358',-0.855
'0:22.361',-0.870
'0:22.364',-0.870
'0:22.367',-0.870
'0:22.369',-0.875
'0:22.372',-0.875
'0:22.375',-0.865
'0:22.378',-0.865
'0:22.381',-0.860
'0:22.383',-0.855
'0:22.386',-0.855
'0:22.389',-0.855
'0:22.392',-0.865
'0:22.394',-0.865
'0:22.397',-0.875
'0:22.400',-0.880
'0:22.403',-0.880
'0:22.406',-0.875
'0:22.408',-0.865
'0:22.411',-0.865
'0:22.414',-0.865
'0:22.417',-0.870
'0:22.419',-0.860
'0:22.422',-0.850
'0:22.425',-0.845
'0:22.428',-0.855
'0:22.431',-0.855
'0:22.433',-0.865
'0:22.436',-0.860
'0:22.439',-0.855
'0:22.442',-0.840
'0:22.444',-0.820
'0:22.447',-0.805
'0:22.450',-0.780
'0:22.453',-0.770
'0:22.456',-0.775
'0:22.458',-0.775
'0:22.461',-0.790
'0:22.464',-0.785
'0:22.467',-0.800
'0:22.469',-0.800
'0:22.472',-0.790
'0:22.475',-0.785
'0:22.478',-0.765
'0:22.481',-0.760
'0:22.483',-0.740
'0:22.486',-0.725
'0:22.489',-0.735
'0:22.492',-0.740
'0:22.494',-0.750
'0:22.497',-0.770
'0:22.500',-0.795
'0:22.503',-0.815
'0:22.506',-0.835
'0:22.508',-0.825
'0:22.511',-0.835
'0:22.514',-0.825
'0:22.517',-0.825
'0:22.519',-0.830
'0:22.522',-0.835
'0:22.525',-0.855
'0:22.528',-0.865
'0:22.531',-0.890
'0:22.533',-0.890
'0:22.536',-0.905
'0:22.539',-0.905
'0:22.542',-0.910
'0:22.544',-0.915
'0:22.547',-0.905
'0:22.550',-0.910
'0:22.553',-0.890
'0:22.556',-0.890
'0:22.558',-0.905
'0:22.561',-0.910
'0:22.564',-0.910
'0:22.567',-0.930
'0:22.569',-0.915
'0:22.572',-0.915
'0:22.575',-0.920
'0:22.578',-0.910
'0:22.581',-0.910
'0:22.583',-0.910
'0:22.586',-0.905
'0:22.589',-0.905
'0:22.592',-0.910
'0:22.594',-0.905
'0:22.597',-0.910
'0:22.600',-0.925
'0:22.603',-0.920
'0:22.606',-0.925
'0:22.608',-0.900
'0:22.611',-0.885
'0:22.614',-0.855
'0:22.617',-0.800
'0:22.619',-0.740
'0:22.622',-0.665
'0:22.625',-0.570
'0:22.628',-0.465
'0:22.631',-0.345
'0:22.633',-0.230
'0:22.636',-0.135
'0:22.639',-0.095
'0:22.642',-0.110
'0:22.644',-0.180
'0:22.647',-0.300
'0:22.650',-0.410
'0:22.653',-0.535
'0:22.656',-0.670
'0:22.658',-0.825
'0:22.661',-1.000
'0:22.664',-1.110
'0:22.667',-1.190
'0:22.669',-1.185
'0:22.672',-1.160
'0:22.675',-1.135
'0:22.678',-1.130
'0:22.681',-1.125
'0:22.683',-1.115
'0:22.686',-1.090
'0:22.689',-1.075
'0:22.692',-1.050
'0:22.694',-1.030
'0:22.697',-1.010
'0:22.700',-1.010
'0:22.703',-1.010
'0:22.706',-1.000
'0:22.708',-0.995
'0:22.711',-1.000
'0:22.714',-0.995
'0:22.717',-1.000
'0:22.719',-1.005
'0:22.722',-0.995
'0:22.725',-1.010
'0:22.728',-1.025
'0:22.731',-1.035
'0:22.733',-1.035
'0:22.736',-1.010
'0:22.739',-1.020
'0:22.742',-1.020
'0:22.744',-1.025
'0:22.747',-1.025
'0:22.750',-1.020
'0:22.753',-1.000
'0:22.756',-1.000
'0:22.758',-1.005
'0:22.761',-1.020
'0:22.764',-1.015
'0:22.767',-1.025
'0:22.769',-1.030
'0:22.772',-1.040
'0:22.775',-1.040
'0:22.778',-1.045
'0:22.781',-1.025
'0:22.783',-1.030
'0:22.786',-1.020
'0:22.789',-1.015
'0:22.792',-1.025
'0:22.794',-1.035
'0:22.797',-1.045
'0:22.800',-1.055
'0:22.803',-1.055
'0:22.806',-1.070
'0:22.808',-1.065
'0:22.811',-1.050
'0:22.814',-1.060
'0:22.817',-1.045
'0:22.819',-1.050
'0:22.822',-1.055
'0:22.825',-1.065
'0:22.828',-1.075
'0:22.831',-1.085
'0:22.833',-1.095
'0:22.836',-1.095
'0:22.839',-1.100
'0:22.842',-1.095
'0:22.844',-1.115
'0:22.847',-1.105
'0:22.850',-1.095
'0:22.853',-1.090
'0:22.856',-1.085
'0:22.858',-1.100
'0:22.861',-1.110
'0:22.864',-1.110
'0:22.867',-1.110
'0:22.869',-1.125
'0:22.872',-1.110
'0:22.875',-1.115
'0:22.878',-1.115
'0:22.881',-1.105
'0:22.883',-1.095
'0:22.886',-1.100
'0:22.889',-1.105
'0:22.892',-1.100
'0:22.894',-1.100
'0:22.897',-1.090
'0:22.900',-1.090
'0:22.903',-1.100
'0:22.906',-1.090
'0:22.908',-1.075
'0:22.911',-1.065
'0:22.914',-1.045
'0:22.917',-1.035
'0:22.919',-1.030
'0:22.922',-1.020
'0:22.925',-1.010
'0:22.928',-1.005
'0:22.931',-0.980
'0:22.933',-0.975
'0:22.936',-0.945
'0:22.939',-0.925
'0:22.942',-0.905
'0:22.944',-0.865
'0:22.947',-0.840
'0:22.950',-0.815
'0:22.953',-0.810
'0:22.956',-0.800
'0:22.958',-0.795
'0:22.961',-0.775
'0:22.964',-0.770
'0:22.967',-0.770
'0:22.969',-0.765
'0:22.972',-0.750
'0:22.975',-0.755
'0:22.978',-0.745
'0:22.981',-0.740
'0:22.983',-0.735
'0:22.986',-0.740
'0:22.989',-0.745
'0:22.992',-0.740
'0:22.994',-0.745
'0:22.997',-0.770
'0:23.000',-0.770
'0:23.003',-0.785
'0:23.006',-0.785
'0:23.008',-0.795
'0:23.011',-0.790
'0:23.014',-0.775
'0:23.017',-0.775
'0:23.019',-0.765
'0:23.022',-0.770
'0:23.025',-0.780
'0:23.028',-0.795
'0:23.031',-0.795
'0:23.033',-0.805
'0:23.036',-0.805
'0:23.039',-0.810
'0:23.042',-0.805
'0:23.044',-0.805
'0:23.047',-0.800
'0:23.050',-0.810
'0:23.053',-0.790
'0:23.056',-0.800
'0:23.058',-0.805
'0:23.061',-0.815
'0:23.064',-0.815
'0:23.067',-0.825
'0:23.069',-0.815
'0:23.072',-0.825
'0:23.075',-0.825
'0:23.078',-0.815
'0:23.081',-0.820
'0:23.083',-0.810
'0:23.086',-0.810
'0:23.089',-0.815
'0:23.092',-0.815
'0:23.094',-0.825
'0:23.097',-0.825
'0:23.100',-0.835
'0:23.103',-0.840
'0:23.106',-0.825
'0:23.108',-0.835
'0:23.111',-0.830
'0:23.114',-0.825
'0:23.117',-0.815
'0:23.119',-0.805
'0:23.122',-0.810
'0:23.125',-0.810
'0:23.128',-0.810
'0:23.131',-0.825
'0:23.133',-0.820
'0:23.136',-0.825
'0:23.139',-0.825
'0:23.142',-0.810
'0:23.144',-0.805
'0:23.147',-0.800
'0:23.150',-0.780
'0:23.153',-0.765
'0:23.156',-0.765
'0:23.158',-0.745
'0:23.161',-0.740
'0:23.164',-0.730
'0:23.167',-0.730
'0:23.169',-0.730
'0:23.172',-0.730
'0:23.175',-0.740
'0:23.178',-0.735
'0:23.181',-0.735
'0:23.183',-0.725
'0:23.186',-0.710
'0:23.189',-0.695
'0:23.192',-0.690
'0:23.194',-0.695
'0:23.197',-0.690
'0:23.200',-0.705
'0:23.203',-0.720
'0:23.206',-0.740
'0:23.208',-0.755
'0:23.211',-0.775
'0:23.214',-0.785
'0:23.217',-0.780
'0:23.219',-0.775
'0:23.222',-0.765
'0:23.225',-0.765
'0:23.228',-0.785
'0:23.231',-0.785
'0:23.233',-0.825
'0:23.236',-0.845
'0:23.239',-0.850
'0:23.242',-0.855
'0:23.244',-0.855
'0:23.247',-0.855
'0:23.250',-0.865
'0:23.253',-0.855
'0:23.256',-0.860
'0:23.258',-0.870
'0:23.261',-0.870
'0:23.264',-0.875
'0:23.267',-0.890
'0:23.269',-0.895
'0:23.272',-0.895
'0:23.275',-0.895
'0:23.278',-0.890
'0:23.281',-0.890
'0:23.283',-0.865
'0:23.286',-0.865
'0:23.289',-0.855
'0:23.292',-0.870
'0:23.294',-0.870
'0:23.297',-0.875
'0:23.300',-0.875
'0:23.303',-0.880
'0:23.306',-0.870
'0:23.308',-0.870
'0:23.311',-0.870
'0:23.314',-0.850
'0:23.317',-0.850
'0:23.319',-0.855
'0:23.322',-0.850
'0:23.325',-0.835
'0:23.328',-0.795
'0:23.331',-0.730
'0:23.333',-0.625
'0:23.336',-0.505
'0:23.339',-0.345
'0:23.342',-0.200
'0:23.344',-0.070
'0:23.347',-0.005
'0:23.350',-0.050
'0:23.353',-0.165
'0:23.356',-0.325
'0:23.358',-0.505
'0:23.361',-0.680
'0:23.364',-0.860
'0:23.367',-1.030
'0:23.369',-1.140
'0:23.372',-1.185
'0:23.375',-1.180
'0:23.378',-1.135
'0:23.381',-1.105
'0:23.383',-1.070
'0:23.386',-1.040
'0:23.389',-1.030
'0:23.392',-1.020
'0:23.394',-1.020
'0:23.397',-1.020
'0:23.400',-1.015
'0:23.403',-1.005
'0:23.406',-1.000
'0:23.408',-0.990
'0:23.411',-0.985
'0:23.414',-0.970
'0:23.417',-0.970
'0:23.419',-0.970
'0:23.422',-0.970
'0:23.425',-0.975
'0:23.428',-0.980
'0:23.431',-0.985
'0:23.433',-0.995
'0:23.436',-1.000
'0:23.439',-1.000
'0:23.442',-0.990
'0:23.444',-0.990
'0:23.447',-1.000
'0:23.450',-1.000
'0:23.453',-0.990
'0:23.456',-0.985
'0:23.458',-1.005
'0:23.461',-1.005
'0:23.464',-1.010
'0:23.467',-1.010
'0:23.469',-1.020
'0:23.472',-1.020
'0:23.475',-1.010
'0:23.478',-1.005
'0:23.481',-1.000
'0:23.483',-0.985
'0:23.486',-0.990
'0:23.489',-1.000
'0:23.492',-1.015
'0:23.494',-1.035
'0:23.497',-1.040
'0:23.500',-1.045
'0:23.503',-1.035
'0:23.506',-1.035
'0:23.508',-1.040
'0:23.511',-1.030
'0:23.514',-1.030
'0:23.517',-1.035
'0:23.519',-1.030
'0:23.522',-1.040
'0:23.525',-1.035
'0:23.528',-1.045
'0:23.531',-1.055
'0:23.533',-1.060
'0:23.536',-1.060
'0:23.539',-1.075
'0:23.542',-1.085
'0:23.544',-1.090
'0:23.547',-1.090
'0:23.550',-1.080
'0:23.553',-1.085
'0:23.556',-1.095
'0:23.558',-1.095
'0:23.561',-1.105
'0:23.564',-1.120
'0:23.567',-1.125
'0:23.569',-1.135
'0:23.572',-1.135
'0:23.575',-1.120
'0:23.578',-1.120
'0:23.581',-1.105
'0:23.583',-1.115
'0:23.586',-1.100
'0:23.589',-1.105
'0:23.592',-1.095
'0:23.594',-1.100
'0:23.597',-1.100
'0:23.600',-1.110
'0:23.603',-1.120
'0:23.606',-1.105
'0:23.608',-1.110
'0:23.611',-1.095
'0:23.614',-1.075
'0:23.617',-1.055
'0:23.619',-1.045
'0:23.622',-1.035
'0:23.625',-1.020
'0:23.628',-1.010
'0:23.631',-1.000
'0:23.633',-0.990
'0:23.636',-0.970
'0:23.639',-0.950
'0:23.642',-0.925
'0:23.644',-0.910
'0:23.647',-0.880
'0:23.650',-0.845
'0:23.653',-0.830
'0:23.656',-0.800
'0:23.658',-0.785
'0:23.661',-0.775
'0:23.664',-0.775
'0:23.667',-0.760
'0:23.669',-0.760
'0:23.672',-0.750
'0:23.675',-0.740
'0:23.678',-0.725
'0:23.681',-0.725
'0:23.683',-0.715
'0:23.686',-0.730
'0:23.689',-0.730
'0:23.692',-0.730
'0:23.694',-0.735
'0:23.697',-0.745
'0:23.700',-0.745
'0:23.703',-0.750
'0:23.706',-0.755
'0:23.708',-0.750
'0:23.711',-0.755
'0:23.714',-0.745
'0:23.717',-0.745
'0:23.719',-0.740
'0:23.722',-0.750
'0:23.725',-0.755
'0:23.728',-0.765
'0:23.731',-0.775
'0:23.733',-0.780
'0:23.736',-0.780
'0:23.739',-0.780
'0:23.742',-0.790
'0:23.744',-0.780
'0:23.747',-0.785
'0:23.750',-0.775
'0:23.753',-0.770
'0:23.756',-0.765
'0:23.758',-0.780
'0:23.761',-0.785
'0:23.764',-0.795
'0:23.767',-0.805
'0:23.769',-0.805
'0:23.772',-0.805
'0:23.775',-0.800
'0:23.778',-0.795
'0:23.781',-0.790
'0:23.783',-0.800
'0:23.786',-0.805
'0:23.789',-0.795
'0:23.792',-0.800
'0:23.794',-0.800
'0:23.797',-0.815
'0:23.800',-0.825
'0:23.803',-0.810
'0:23.806',-0.815
'0:23.808',-0.810
'0:23.811',-0.805
'0:23.814',-0.800
'0:23.817',-0.805
'0:23.819',-0.800
'0:23.822',-0.805
'0:23.825',-0.800
'0:23.828',-0.805
'0:23.831',-0.800
'0:23.833',-0.810
'0:23.836',-0.820
'0:23.839',-0.825
'0:23.842',-0.805
'0:23.844',-0.810
'0:23.847',-0.790
'0:23.850',-0.785
'0:23.853',-0.770
'0:23.856',-0.765
'0:23.858',-0.765
'0:23.861',-0.775
'0:23.864',-0.770
'0:23.867',-0.765
'0:23.869',-0.755
'0:23.872',-0.750
'0:23.875',-0.730
'0:23.878',-0.720
'0:23.881',-0.710
'0:23.883',-0.700
'0:23.886',-0.695
'0:23.889',-0.695
'0:23.892',-0.695
'0:23.894',-0.700
'0:23.897',-0.705
'0:23.900',-0.700
'0:23.903',-0.685
'0:23.906',-0.685
'0:23.908',-0.685
'0:23.911',-0.700
'0:23.914',-0.695
'0:23.917',-0.720
'0:23.919',-0.735
'0:23.922',-0.750
'0:23.925',-0.765
'0:23.928',-0.770
'0:23.931',-0.775
'0:23.933',-0.770
'0:23.936',-0.775
'0:23.939',-0.790
'0:23.942',-0.805
'0:23.944',-0.815
'0:23.947',-0.825
'0:23.950',-0.830
'0:23.953',-0.840
'0:23.956',-0.860
'0:23.958',-0.865
'0:23.961',-0.865
'0:23.964',-0.875
'0:23.967',-0.875
'0:23.969',-0.875
'0:23.972',-0.880
'0:23.975',-0.875
'0:23.978',-0.860
'0:23.981',-0.855
'0:23.983',-0.855
'0:23.986',-0.855
'0:23.989',-0.855
'0:23.992',-0.875
'0:23.994',-0.865
'0:23.997',-0.870
'0:24.000',-0.865
'0:24.003',-0.870
'0:24.006',-0.875
'0:24.008',-0.865
'0:24.011',-0.860
'0:24.014',-0.850
'0:24.017',-0.845
'0:24.019',-0.835
'0:24.022',-0.840
'0:24.025',-0.820
'0:24.028',-0.770
'0:24.031',-0.720
'0:24.033',-0.660
'0:24.036',-0.560
'0:24.039',-0.445
'0:24.042',-0.300
'0:24.044',-0.175
'0:24.047',-0.060
'0:24.050',-0.015
'0:24.053',-0.050
'0:24.056',-0.160
'0:24.058',-0.310
'0:24.061',-0.455
'0:24.064',-0.620
'0:24.067',-0.785
'0:24.069',-0.955
'0:24.072',-1.100
'0:24.075',-1.165
'0:24.078',-1.175
'0:24.081',-1.170
'0:24.083',-1.130
'0:24.086',-1.095
'0:24.089',-1.065
'0:24.092',-1.040
'0:24.094',-1.030
'0:24.097',-1.035
'0:24.100',-1.025
'0:24.103',-1.010
'0:24.106',-0.995
'0:24.108',-0.975
'0:24.111',-0.965
'0:24.114',-0.965
'0:24.117',-0.945
'0:24.119',-0.955
'0:24.122',-0.960
'0:24.125',-0.965
'0:24.128',-0.960
'0:24.131',-0.980
'0:24.133',-0.990
'0:24.136',-0.985
'0:24.139',-0.975
'0:24.142',-0.975
'0:24.144',-0.975
'0:24.147',-0.965
'0:24.150',-0.965
'0:24.153',-0.955
'0:24.156',-0.965
'0:24.158',-0.970
'0:24.161',-0.965
'0:24.164',-0.985
'0:24.167',-0.980
'0:24.169',-1.010
'0:24.172',-1.000
'0:24.175',-0.995
'0:24.178',-0.990
'0:24.181',-0.990
'0:24.183',-0.990
'0:24.186',-0.985
'0:24.189',-0.995
'0:24.192',-1.010
'0:24.194',-1.000
'0:24.197',-1.025
'0:24.200',-1.015
'0:24.203',-1.030
'0:24.206',-1.035
'0:24.208',-1.035
'0:24.211',-1.040
'0:24.214',-1.040
'0:24.217',-1.035
'0:24.219',-1.015
'0:24.222',-1.025
'0:24.225',-1.045
'0:24.228',-1.055
'0:24.231',-1.070
'0:24.233',-1.070
'0:24.236',-1.080
'0:24.239',-1.085
'0:24.242',-1.080
'0:24.244',-1.080
'0:24.247',-1.075
'0:24.250',-1.070
'0:24.253',-1.065
'0:24.256',-1.070
'0:24.258',-1.080
'0:24.261',-1.095
'0:24.264',-1.100
'0:24.267',-1.105
'0:24.269',-1.110
'0:24.272',-1.110
'0:24.275',-1.110
'0:24.278',-1.090
'0:24.281',-1.090
'0:24.283',-1.080
'0:24.286',-1.075
'0:24.289',-1.095
'0:24.292',-1.080
'0:24.294',-1.080
'0:24.297',-1.095
'0:24.300',-1.085
'0:24.303',-1.085
'0:24.306',-1.080
'0:24.308',-1.075
'0:24.311',-1.060
'0:24.314',-1.040
'0:24.317',-1.025
'0:24.319',-0.995
'0:24.322',-0.990
'0:24.325',-0.980
'0:24.328',-0.960
'0:24.331',-0.935
'0:24.333',-0.925
'0:24.336',-0.905
'0:24.339',-0.885
'0:24.342',-0.865
'0:24.344',-0.825
'0:24.347',-0.795
'0:24.350',-0.770
'0:24.353',-0.765
'0:24.356',-0.750
'0:24.358',-0.740
'0:24.361',-0.725
'0:24.364',-0.720
'0:24.367',-0.730
'0:24.369',-0.730
'0:24.372',-0.735
'0:24.375',-0.740
'0:24.378',-0.725
'0:24.381',-0.720
'0:24.383',-0.725
'0:24.386',-0.705
'0:24.389',-0.720
'0:24.392',-0.715
'0:24.394',-0.740
'0:24.397',-0.750
'0:24.400',-0.765
'0:24.403',-0.770
'0:24.406',-0.770
'0:24.408',-0.770
'0:24.411',-0.765
'0:24.414',-0.755
'0:24.417',-0.760
'0:24.419',-0.755
'0:24.422',-0.760
'0:24.425',-0.765
'0:24.428',-0.770
'0:24.431',-0.790
'0:24.433',-0.785
'0:24.436',-0.785
'0:24.439',-0.790
'0:24.442',-0.790
'0:24.444',-0.790
'0:24.447',-0.780
'0:24.450',-0.765
'0:24.453',-0.765
'0:24.456',-0.770
'0:24.458',-0.775
'0:24.461',-0.790
'0:24.464',-0.790
'0:24.467',-0.800
'0:24.469',-0.825
'0:24.472',-0.825
'0:24.475',-0.820
'0:24.478',-0.820
'0:24.481',-0.815
'0:24.483',-0.795
'0:24.486',-0.790
'0:24.489',-0.790
'0:24.492',-0.790
'0:24.494',-0.810
'0:24.497',-0.795
'0:24.500',-0.810
'0:24.503',-0.815
'0:24.506',-0.810
'0:24.508',-0.810
'0:24.511',-0.815
'0:24.514',-0.800
'0:24.517',-0.795
'0:24.519',-0.780
'0:24.522',-0.790
'0:24.525',-0.780
'0:24.528',-0.790
'0:24.531',-0.790
'0:24.533',-0.785
'0:24.536',-0.790
'0:24.539',-0.805
'0:24.542',-0.800
'0:24.544',-0.790
'0:24.547',-0.770
'0:24.550',-0.760
'0:24.553',-0.745
'0:24.556',-0.735
'0:24.558',-0.725
'0:24.561',-0.720
'0:24.564',-0.735
'0:24.567',-0.725
'0:24.569',-0.715
'0:24.572',-0.720
'0:24.575',-0.720
'0:24.578',-0.705
'0:24.581',-0.705
'0:24.583',-0.685
'0:24.586',-0.675
'0:24.589',-0.675
'0:24.592',-0.675
'0:24.594',-0.665
'0:24.597',-0.675
'0:24.600',-0.690
'0:24.603',-0.710
'0:24.606',-0.735
'0:24.608',-0.740
'0:24.611',-0.740
'0:24.614',-0.765
'0:24.617',-0.755
'0:24.619',-0.750
'0:24.622',-0.745
'0:24.625',-0.750
'0:24.628',-0.755
'0:24.631',-0.765
'0:24.633',-0.795
'0:24.636',-0.815
'0:24.639',-0.840
'0:24.642',-0.835
'0:24.644',-0.845
'0:24.647',-0.840
'0:24.650',-0.845
'0:24.653',-0.845
'0:24.656',-0.845
'0:24.658',-0.860
'0:24.661',-0.850
'0:24.664',-0.860
'0:24.667',-0.860
'0:24.669',-0.870
'0:24.672',-0.875
'0:24.675',-0.870
'0:24.678',-0.855
'0:24.681',-0.855
'0:24.683',-0.835
'0:24.686',-0.820
'0:24.689',-0.830
'0:24.692',-0.840
'0:24.694',-0.850
'0:24.697',-0.855
'0:24.700',-0.860
'0:24.703',-0.850
'0:24.706',-0.870
'0:24.708',-0.860
'0:24.711',-0.860
'0:24.714',-0.835
'0:24.717',-0.820
'0:24.719',-0.800
'0:24.722',-0.780
'0:24.725',-0.730
'0:24.728',-0.675
'0:24.731',-0.570
'0:24.733',-0.470
'0:24.736',-0.340
'0:24.739',-0.215
'0:24.742',-0.120
'0:24.744',-0.050
'0:24.747',-0.085
'0:24.750',-0.180
'0:24.753',-0.330
'0:24.756',-0.490
'0:24.758',-0.655
'0:24.761',-0.825
'0:24.764',-1.010
'0:24.767',-1.135
'0:24.769',-1.195
'0:24.772',-1.190
'0:24.775',-1.160
'0:24.778',-1.135
'0:24.781',-1.100
'0:24.783',-1.090
'0:24.786',-1.055
'0:24.789',-1.035
'0:24.792',-1.020
'0:24.794',-1.005
'0:24.797',-1.010
'0:24.800',-0.985
'0:24.803',-0.980
'0:24.806',-0.965
'0:24.808',-0.960
'0:24.811',-0.950
'0:24.814',-0.940
'0:24.817',-0.940
'0:24.819',-0.950
'0:24.822',-0.940
'0:24.825',-0.945
'0:24.828',-0.945
'0:24.831',-0.960
'0:24.833',-0.960
'0:24.836',-0.955
'0:24.839',-0.955
'0:24.842',-0.950
'0:24.844',-0.965
'0:24.847',-0.950
'0:24.850',-0.950
'0:24.853',-0.930
'0:24.856',-0.935
'0:24.858',-0.955
'0:24.861',-0.955
'0:24.864',-0.970
'0:24.867',-0.975
'0:24.869',-0.975
'0:24.872',-0.980
'0:24.875',-0.975
'0:24.878',-0.975
'0:24.881',-0.990
'0:24.883',-0.975
'0:24.886',-0.975
'0:24.889',-0.975
'0:24.892',-0.975
'0:24.894',-0.980
'0:24.897',-0.985
'0:24.900',-0.985
'0:24.903',-1.000
'0:24.906',-1.015
'0:24.908',-1.000
'0:24.911',-0.995
'0:24.914',-0.995
'0:24.917',-1.000
'0:24.919',-1.000
'0:24.922',-1.005
'0:24.925',-1.000
'0:24.928',-1.005
'0:24.931',-1.025
'0:24.933',-1.030
'0:24.936',-1.040
'0:24.939',-1.040
'0:24.942',-1.050
'0:24.944',-1.045
'0:24.947',-1.045
'0:24.950',-1.045
'0:24.953',-1.040
'0:24.956',-1.040
'0:24.958',-1.050
'0:24.961',-1.055
'0:24.964',-1.065
'0:24.967',-1.070
'0:24.969',-1.075
'0:24.972',-1.075
'0:24.975',-1.065
'0:24.978',-1.075
'0:24.981',-1.080
'0:24.983',-1.065
'0:24.986',-1.065
'0:24.989',-1.065
'0:24.992',-1.065
'0:24.994',-1.065
'0:24.997',-1.060
'0:25.000',-1.065
'0:25.003',-1.060
'0:25.006',-1.065
'0:25.008',-1.065
'0:25.011',-1.040
'0:25.014',-1.020
'0:25.017',-1.015
'0:25.019',-0.995
'0:25.022',-0.995
'0:25.025',-0.980
'0:25.028',-0.980
'0:25.031',-0.975
'0:25.033',-0.960
'0:25.036',-0.950
'0:25.039',-0.935
'0:25.042',-0.910
'0:25.044',-0.885
'0:25.047',-0.870
'0:25.050',-0.840
'0:25.053',-0.815
'0:25.056',-0.795
'0:25.058',-0.780
'0:25.061',-0.775
'0:25.064',-0.765
'0:25.067',-0.750
'0:25.069',-0.750
'0:25.072',-0.755
'0:25.075',-0.730
'0:25.078',-0.720
'0:25.081',-0.705
'0:25.083',-0.705
'0:25.086',-0.685
'0:25.089',-0.695
'0:25.092',-0.700
'0:25.094',-0.705
'0:25.097',-0.710
'0:25.100',-0.720
'0:25.103',-0.720
'0:25.106',-0.725
'0:25.108',-0.730
'0:25.111',-0.720
'0:25.114',-0.715
'0:25.117',-0.725
'0:25.119',-0.730
'0:25.122',-0.720
'0:25.125',-0.725
'0:25.128',-0.735
'0:25.131',-0.745
'0:25.133',-0.745
'0:25.136',-0.750
'0:25.139',-0.760
'0:25.142',-0.765
'0:25.144',-0.770
'0:25.147',-0.760
'0:25.150',-0.750
'0:25.153',-0.755
'0:25.156',-0.760
'0:25.158',-0.760
'0:25.161',-0.775
'0:25.164',-0.775
'0:25.167',-0.775
'0:25.169',-0.790
'0:25.172',-0.785
'0:25.175',-0.790
'0:25.178',-0.785
'0:25.181',-0.780
'0:25.183',-0.770
'0:25.186',-0.775
'0:25.189',-0.755
'0:25.192',-0.760
'0:25.194',-0.770
'0:25.197',-0.780
'0:25.200',-0.780
'0:25.203',-0.780
'0:25.206',-0.785
'0:25.208',-0.775
'0:25.211',-0.790
'0:25.214',-0.775
'0:25.217',-0.775
'0:25.219',-0.765
'0:25.222',-0.790
'0:25.225',-0.780
'0:25.228',-0.775
'0:25.231',-0.775
'0:25.233',-0.775
'0:25.236',-0.790
'0:25.239',-0.790
'0:25.242',-0.795
'0:25.244',-0.780
'0:25.247',-0.770
'0:25.250',-0.765
'0:25.253',-0.755
'0:25.256',-0.750
'0:25.258',-0.745
'0:25.261',-0.760
'0:25.264',-0.765
'0:25.267',-0.755
'0:25.269',-0.760
'0:25.272',-0.765
'0:25.275',-0.740
'0:25.278',-0.730
'0:25.281',-0.705
'0:25.283',-0.690
'0:25.286',-0.685
'0:25.289',-0.690
'0:25.292',-0.680
'0:25.294',-0.680
'0:25.297',-0.680
'0:25.300',-0.685
'0:25.303',-0.690
'0:25.306',-0.695
'0:25.308',-0.690
'0:25.311',-0.665
'0:25.314',-0.645
'0:25.317',-0.630
'0:25.319',-0.630
'0:25.322',-0.655
'0:25.325',-0.675
'0:25.328',-0.695
'0:25.331',-0.710
'0:25.333',-0.725
'0:25.336',-0.745
'0:25.339',-0.750
'0:25.342',-0.750
'0:25.344',-0.740
'0:25.347',-0.740
'0:25.350',-0.740
'0:25.353',-0.740
'0:25.356',-0.765
'0:25.358',-0.775
'0:25.361',-0.795
'0:25.364',-0.820
'0:25.367',-0.830
'0:25.369',-0.840
'0:25.372',-0.850
'0:25.375',-0.845
'0:25.378',-0.855
'0:25.381',-0.850
'0:25.383',-0.850
'0:25.386',-0.835
'0:25.389',-0.825
'0:25.392',-0.835
'0:25.394',-0.825
'0:25.397',-0.845
'0:25.400',-0.845
'0:25.403',-0.850
'0:25.406',-0.850
'0:25.408',-0.850
'0:25.411',-0.840
'0:25.414',-0.840
'0:25.417',-0.820
'0:25.419',-0.825
'0:25.422',-0.825
'0:25.425',-0.815
'0:25.428',-0.825
'0:25.431',-0.825
'0:25.433',-0.830
'0:25.436',-0.830
'0:25.439',-0.830
'0:25.442',-0.795
'0:25.444',-0.755
'0:25.447',-0.695
'0:25.450',-0.625
'0:25.453',-0.515
'0:25.456',-0.400
'0:25.458',-0.275
'0:25.461',-0.160
'0:25.464',-0.080
'0:25.467',-0.040
'0:25.469',-0.060
'0:25.472',-0.145
'0:25.475',-0.270
'0:25.478',-0.395
'0:25.481',-0.530
'0:25.483',-0.680
'0:25.486',-0.825
'0:25.489',-0.990
'0:25.492',-1.110
'0:25.494',-1.160
'0:25.497',-1.185
'0:25.500',-1.155
'0:25.503',-1.115
'0:25.506',-1.100
'0:25.508',-1.075
'0:25.511',-1.055
'0:25.514',-1.040
'0:25.517',-1.010
'0:25.519',-0.980
'0:25.522',-0.965
'0:25.525',-0.945
'0:25.528',-0.935
'0:25.531',-0.940
'0:25.533',-0.935
'0:25.536',-0.940
'0:25.539',-0.945
'0:25.542',-0.960
'0:25.544',-0.960
'0:25.547',-0.950
'0:25.550',-0.940
'0:25.553',-0.925
'0:25.556',-0.930
'0:25.558',-0.940
'0:25.561',-0.955
'0:25.564',-0.955
'0:25.567',-0.965
'0:25.569',-0.975
'0:25.572',-0.965
'0:25.575',-0.970
'0:25.578',-0.960
'0:25.581',-0.965
'0:25.583',-0.960
'0:25.586',-0.960
'0:25.589',-0.965
'0:25.592',-0.970
'0:25.594',-0.965
'0:25.597',-0.980
'0:25.600',-0.980
'0:25.603',-0.995
'0:25.606',-0.990
'0:25.608',-0.995
'0:25.611',-0.995
'0:25.614',-0.990
'0:25.617',-0.985
'0:25.619',-0.965
'0:25.622',-0.985
'0:25.625',-0.980
'0:25.628',-0.995
'0:25.631',-1.000
'0:25.633',-1.010
'0:25.636',-1.010
'0:25.639',-1.015
'0:25.642',-1.015
'0:25.644',-1.025
'0:25.647',-1.030
'0:25.650',-1.030
'0:25.653',-1.025
'0:25.656',-1.020
'0:25.658',-1.025
'0:25.661',-1.030
'0:25.664',-1.040
'0:25.667',-1.050
'0:25.669',-1.055
'0:25.672',-1.065
'0:25.675',-1.065
'0:25.678',-1.065
'0:25.681',-1.065
'0:25.683',-1.055
'0:25.686',-1.055
'0:25.689',-1.055
'0:25.692',-1.050
'0:25.694',-1.060
'0:25.697',-1.060
'0:25.700',-1.065
'0:25.703',-1.070
'0:25.706',-1.075
'0:25.708',-1.065
'0:25.711',-1.065
'0:25.714',-1.055
'0:25.717',-1.060
'0:25.719',-1.045
'0:25.722',-1.040
'0:25.725',-1.030
'0:25.728',-1.035
'0:25.731',-1.035
'0:25.733',-1.030
'0:25.736',-1.020
'0:25.739',-1.020
'0:25.742',-1.000
'0:25.744',-0.990
'0:25.747',-0.970
'0:25.750',-0.945
'0:25.753',-0.920
'0:25.756',-0.900
'0:25.758',-0.890
'0:25.761',-0.870
'0:25.764',-0.860
'0:25.767',-0.845
'0:25.769',-0.820
'0:25.772',-0.810
'0:25.775',-0.790
'0:25.778',-0.770
'0:25.781',-0.745
'0:25.783',-0.720
'0:25.786',-0.715
'0:25.789',-0.710
'0:25.792',-0.705
'0:25.794',-0.705
'0:25.797',-0.715
'0:25.800',-0.720
'0:25.803',-0.725
'0:25.806',-0.735
'0:25.808',-0.735
'0:25.811',-0.725
'0:25.814',-0.720
'0:25.817',-0.715
'0:25.819',-0.710
'0:25.822',-0.720
'0:25.825',-0.725
'0:25.828',-0.740
'0:25.831',-0.755
'0:25.833',-0.765
'0:25.836',-0.775
'0:25.839',-0.785
'0:25.842',-0.780
'0:25.844',-0.765
'0:25.847',-0.760
'0:25.850',-0.750
'0:25.853',-0.755
'0:25.856',-0.760
'0:25.858',-0.770
'0:25.861',-0.775
'0:25.864',-0.785
'0:25.867',-0.790
'0:25.869',-0.795
'0:25.872',-0.795
'0:25.875',-0.800
'0:25.878',-0.805
'0:25.881',-0.785
'0:25.883',-0.805
'0:25.886',-0.795
'0:25.889',-0.780
'0:25.892',-0.795
'0:25.894',-0.790
'0:25.897',-0.800
'0:25.900',-0.815
'0:25.903',-0.815
'0:25.906',-0.820
'0:25.908',-0.820
'0:25.911',-0.820
'0:25.914',-0.805
'0:25.917',-0.810
'0:25.919',-0.800
'0:25.922',-0.795
'0:25.925',-0.810
'0:25.928',-0.805
'0:25.931',-0.815
'0:25.933',-0.815
'0:25.936',-0.825
'0:25.939',-0.835
'0:25.942',-0.835
'0:25.944',-0.835
'0:25.947',-0.815
'0:25.950',-0.810
'0:25.953',-0.800
'0:25.956',-0.800
'0:25.958',-0.805
'0:25.961',-0.820
'0:25.964',-0.815
'0:25.967',-0.835
'0:25.969',-0.835
'0:25.972',-0.825
'0:25.975',-0.820
'0:25.978',-0.800
'0:25.981',-0.795
'0:25.983',-0.785
'0:25.986',-0.765
'0:25.989',-0.760
'0:25.992',-0.750
'0:25.994',-0.745
'0:25.997',-0.745
'0:26.000',-0.750
'0:26.003',-0.750
'0:26.006',-0.745
'0:26.008',-0.750
'0:26.011',-0.730
'0:26.014',-0.725
'0:26.017',-0.715
'0:26.019',-0.705
'0:26.022',-0.690
'0:26.025',-0.700
'0:26.028',-0.710
'0:26.031',-0.715
'0:26.033',-0.720
'0:26.036',-0.735
'0:26.039',-0.750
'0:26.042',-0.760
'0:26.044',-0.785
'0:26.047',-0.775
'0:26.050',-0.765
'0:26.053',-0.765
'0:26.056',-0.765
'0:26.058',-0.765
'0:26.061',-0.785
'0:26.064',-0.805
'0:26.067',-0.830
'0:26.069',-0.855
'0:26.072',-0.865
'0:26.075',-0.875
'0:26.078',-0.880
'0:26.081',-0.875
'0:26.083',-0.875
'0:26.086',-0.865
'0:26.089',-0.870
'0:26.092',-0.870
'0:26.094',-0.895
'0:26.097',-0.885
'0:26.100',-0.910
'0:26.103',-0.905
'0:26.106',-0.915
'0:26.108',-0.905
'0:26.111',-0.890
'0:26.114',-0.875
'0:26.117',-0.860
'0:26.119',-0.855
'0:26.122',-0.860
'0:26.125',-0.860
'0:26.128',-0.865
'0:26.131',-0.875
'0:26.133',-0.895
'0:26.136',-0.915
'0:26.139',-0.900
'0:26.142',-0.875
'0:26.144',-0.880
'0:26.147',-0.870
'0:26.150',-0.855
'0:26.153',-0.835
'0:26.156',-0.800
'0:26.158',-0.755
'0:26.161',-0.675
'0:26.164',-0.580
'0:26.167',-0.450
'0:26.169',-0.325
'0:26.172',-0.195
'0:26.175',-0.115
'0:26.178',-0.090
'0:26.181',-0.140
'0:26.183',-0.250
'0:26.186',-0.380
'0:26.189',-0.525
'0:26.192',-0.700
'0:26.194',-0.880
'0:26.197',-1.035
'0:26.200',-1.140
'0:26.203',-1.165
'0:26.206',-1.140
'0:26.208',-1.095
'0:26.211',-1.085
'0:26.214',-1.085
'0:26.217',-1.095
'0:26.219',-1.085
'0:26.222',-1.075
'0:26.225',-1.055
'0:26.228',-1.025
'0:26.231',-1.000
'0:26.233',-0.985
'0:26.236',-0.975
'0:26.239',-0.985
'0:26.242',-0.970
'0:26.244',-0.980
'0:26.247',-0.990
'0:26.250',-0.990
'0:26.253',-0.975
'0:26.256',-0.985
'0:26.258',-0.980
'0:26.261',-0.985
'0:26.264',-0.985
'0:26.267',-0.985
'0:26.269',-0.995
'0:26.272',-1.000
'0:26.275',-1.000
'0:26.278',-0.995
'0:26.281',-1.005
'0:26.283',-0.995
'0:26.286',-1.000
'0:26.289',-1.000
'0:26.292',-1.005
'0:26.294',-1.010
'0:26.297',-1.015
'0:26.300',-1.015
'0:26.303',-1.015
'0:26.306',-1.010
'0:26.308',-1.005
'0:26.311',-1.010
'0:26.314',-1.015
'0:26.317',-1.005
'0:26.319',-0.995
'0:26.322',-1.000
'0:26.325',-1.000
'0:26.328',-1.005
'0:26.331',-1.010
'0:26.333',-1.040
'0:26.336',-1.050
'0:26.339',-1.055
'0:26.342',-1.065
'0:26.344',-1.060
'0:26.347',-1.055
'0:26.350',-1.060
'0:26.353',-1.060
'0:26.356',-1.050
'0:26.358',-1.055
'0:26.361',-1.055
'0:26.364',-1.065
'0:26.367',-1.075
'0:26.369',-1.080
'0:26.372',-1.085
'0:26.375',-1.085
'0:26.378',-1.085
'0:26.381',-1.090
'0:26.383',-1.090
'0:26.386',-1.080
'0:26.389',-1.070
'0:26.392',-1.080
'0:26.394',-1.085
'0:26.397',-1.095
'0:26.400',-1.105
'0:26.403',-1.110
'0:26.406',-1.105
'0:26.408',-1.105
'0:26.411',-1.100
'0:26.414',-1.085
'0:26.417',-1.070
'0:26.419',-1.065
'0:26.422',-1.055
'0:26.425',-1.055
'0:26.428',-1.045
'0:26.431',-1.065
'0:26.433',-1.060
'0:26.436',-1.050
'0:26.439',-1.045
'0:26.442',-1.035
'0:26.444',-1.020
'0:26.447',-1.010
'0:26.450',-0.990
'0:26.453',-0.965
'0:26.456',-0.945
'0:26.458',-0.920
'0:26.461',-0.910
'0:26.464',-0.895
'0:26.467',-0.885
'0:26.469',-0.875
'0:26.472',-0.860
'0:26.475',-0.850
'0:26.478',-0.835
'0:26.481',-0.805
'0:26.483',-0.790
'0:26.486',-0.775
'0:26.489',-0.775
'0:26.492',-0.770
'0:26.494',-0.755
'0:26.497',-0.750
'0:26.500',-0.745
'0:26.503',-0.760
'0:26.506',-0.750
'0:26.508',-0.750
'0:26.511',-0.750
'0:26.514',-0.745
'0:26.517',-0.750
'0:26.519',-0.745
'0:26.522',-0.740
'0:26.525',-0.750
'0:26.528',-0.755
'0:26.531',-0.765
'0:26.533',-0.780
'0:26.536',-0.785
'0:26.539',-0.795
'0:26.542',-0.800
'0:26.544',-0.795
'0:26.547',-0.800
'0:26.550',-0.800
'0:26.553',-0.800
'0:26.556',-0.800
'0:26.558',-0.815
'0:26.561',-0.805
'0:26.564',-0.810
'0:26.567',-0.820
'0:26.569',-0.830
'0:26.572',-0.840
'0:26.575',-0.840
'0:26.578',-0.835
'0:26.581',-0.820
'0:26.583',-0.825
'0:26.586',-0.825
'0:26.589',-0.825
'0:26.592',-0.835
'0:26.594',-0.840
'0:26.597',-0.850
'0:26.600',-0.845
'0:26.603',-0.850
'0:26.606',-0.850
'0:26.608',-0.835
'0:26.611',-0.835
'0:26.614',-0.840
'0:26.617',-0.840
'0:26.619',-0.840
'0:26.622',-0.860
'0:26.625',-0.855
'0:26.628',-0.860
'0:26.631',-0.870
'0:26.633',-0.870
'0:26.636',-0.875
'0:26.639',-0.880
'0:26.642',-0.870
'0:26.644',-0.865
'0:26.647',-0.855
'0:26.650',-0.855
'0:26.653',-0.845
'0:26.656',-0.840
'0:26.658',-0.835
'0:26.661',-0.850
'0:26.664',-0.855
'0:26.667',-0.855
'0:26.669',-0.865
'0:26.672',-0.855
'0:26.675',-0.850
'0:26.678',-0.855
'0:26.681',-0.860
'0:26.683',-0.840
'0:26.686',-0.835
'0:26.689',-0.820
'0:26.692',-0.815
'0:26.694',-0.825
'0:26.697',-0.815
'0:26.700',-0.810
'0:26.703',-0.815
'0:26.706',-0.810
'0:26.708',-0.795
'0:26.711',-0.790
'0:26.714',-0.780
'0:26.717',-0.775
'0:26.719',-0.755
'0:26.722',-0.755
'0:26.725',-0.745
'0:26.728',-0.735
'0:26.731',-0.735
'0:26.733',-0.755
'0:26.736',-0.745
'0:26.739',-0.765
'0:26.742',-0.800
'0:26.744',-0.815
'0:26.747',-0.820
'0:26.750',-0.825
'0:26.753',-0.815
'0:26.756',-0.820
'0:26.758',-0.830
'0:26.761',-0.845
'0:26.764',-0.860
'0:26.767',-0.870
'0:26.769',-0.885
'0:26.772',-0.910
'0:26.775',-0.915
'0:26.778',-0.915
'0:26.781',-0.915
'0:26.783',-0.915
'0:26.786',-0.915
'0:26.789',-0.910
'0:26.792',-0.925
'0:26.794',-0.915
'0:26.797',-0.930
'0:26.800',-0.935
'0:26.803',-0.945
'0:26.806',-0.945
'0:26.808',-0.945
'0:26.811',-0.935
'0:26.814',-0.935
'0:26.817',-0.930
'0:26.819',-0.920
'0:26.822',-0.910
'0:26.825',-0.920
'0:26.828',-0.935
'0:26.831',-0.940
'0:26.833',-0.935
'0:26.836',-0.935
'0:26.839',-0.945
'0:26.842',-0.930
'0:26.844',-0.910
'0:26.847',-0.900
'0:26.850',-0.890
'0:26.853',-0.875
'0:26.856',-0.845
'0:26.858',-0.835
'0:26.861',-0.795
'0:26.864',-0.730
'0:26.867',-0.635
'0:26.869',-0.520
'0:26.872',-0.395
'0:26.875',-0.250
'0:26.878',-0.130
'0:26.881',-0.055
'0:26.883',-0.050
'0:26.886',-0.100
'0:26.889',-0.230
'0:26.892',-0.390
'0:26.894',-0.540
'0:26.897',-0.695
'0:26.900',-0.845
'0:26.903',-1.020
'0:26.906',-1.170
'0:26.908',-1.260
'0:26.911',-1.265
'0:26.914',-1.230
'0:26.917',-1.175
'0:26.919',-1.140
'0:26.922',-1.140
'0:26.925',-1.155
'0:26.928',-1.175
'0:26.931',-1.180
'0:26.933',-1.150
'0:26.936',-1.120
'0:26.939',-1.085
'0:26.942',-1.050
'0:26.944',-1.040
'0:26.947',-1.025
'0:26.950',-1.015
'0:26.953',-1.010
'0:26.956',-1.015
'0:26.958',-1.010
'0:26.961',-1.020
'0:26.964',-1.035
'0:26.967',-1.030
'0:26.969',-1.035
'0:26.972',-1.045
'0:26.975',-1.045
'0:26.978',-1.045
'0:26.981',-1.025
'0:26.983',-1.030
'0:26.986',-1.025
'0:26.989',-1.030
'0:26.992',-1.030
'0:26.994',-1.035
'0:26.997',-1.035
'0:27.000',-1.035
'0:27.003',-1.035
'0:27.006',-1.040
'0:27.008',-1.040
'0:27.011',-1.040
'0:27.014',-1.040
'0:27.017',-1.040
'0:27.019',-1.030
'0:27.022',-1.040
'0:27.025',-1.055
'0:27.028',-1.065
'0:27.031',-1.055
'0:27.033',-1.050
'0:27.036',-1.055
'0:27.039',-1.070
'0:27.042',-1.080
'0:27.044',-1.065
'0:27.047',-1.070
'0:27.050',-1.070
'0:27.053',-1.075
'0:27.056',-1.060
'0:27.058',-1.060
'0:27.061',-1.070
'0:27.064',-1.080
'0:27.067',-1.075
'0:27.069',-1.090
'0:27.072',-1.085
'0:27.075',-1.095
'0:27.078',-1.110
'0:27.081',-1.115
'0:27.083',-1.115
'0:27.086',-1.090
'0:27.089',-1.085
'0:27.092',-1.090
'0:27.094',-1.095
'0:27.097',-1.110
'0:27.100',-1.115
'0:27.103',-1.120
'0:27.106',-1.120
'0:27.108',-1.120
'0:27.111',-1.120
'0:27.114',-1.105
'0:27.117',-1.110
'0:27.119',-1.100
'0:27.122',-1.105
'0:27.125',-1.110
'0:27.128',-1.105
'0:27.131',-1.115
'0:27.133',-1.115
'0:27.136',-1.110
'0:27.139',-1.105
'0:27.142',-1.105
'0:27.144',-1.095
'0:27.147',-1.080
'0:27.150',-1.080
'0:27.153',-1.055
'0:27.156',-1.050
'0:27.158',-1.045
'0:27.161',-1.030
'0:27.164',-1.030
'0:27.167',-1.015
'0:27.169',-1.000
'0:27.172',-0.985
'0:27.175',-0.960
'0:27.178',-0.940
'0:27.181',-0.910
'0:27.183',-0.890
'0:27.186',-0.865
'0:27.189',-0.835
'0:27.192',-0.825
'0:27.194',-0.810
'0:27.197',-0.800
'0:27.200',-0.805
'0:27.203',-0.800
'0:27.206',-0.790
'0:27.208',-0.795
'0:27.211',-0.775
'0:27.214',-0.760
'0:27.217',-0.755
'0:27.219',-0.740
'0:27.222',-0.740
'0:27.225',-0.735
'0:27.228',-0.740
'0:27.231',-0.750
'0:27.233',-0.765
'0:27.236',-0.760
'0:27.239',-0.765
'0:27.242',-0.775
'0:27.244',-0.780
'0:27.247',-0.775
'0:27.250',-0.775
'0:27.253',-0.770
'0:27.256',-0.760
'0:27.258',-0.765
'0:27.261',-0.770
'0:27.264',-0.780
'0:27.267',-0.790
'0:27.269',-0.790
'0:27.272',-0.800
'0:27.275',-0.800
'0:27.278',-0.800
'0:27.281',-0.800
'0:27.283',-0.795
'0:27.286',-0.785
'0:27.289',-0.790
'0:27.292',-0.795
'0:27.294',-0.795
'0:27.297',-0.795
'0:27.300',-0.810
'0:27.303',-0.820
'0:27.306',-0.810
'0:27.308',-0.815
'0:27.311',-0.815
'0:27.314',-0.800
'0:27.317',-0.795
'0:27.319',-0.785
'0:27.322',-0.795
'0:27.325',-0.795
'0:27.328',-0.800
'0:27.331',-0.795
'0:27.333',-0.790
'0:27.336',-0.800
'0:27.339',-0.820
'0:27.342',-0.820
'0:27.344',-0.815
'0:27.347',-0.815
'0:27.350',-0.810
'0:27.353',-0.790
'0:27.356',-0.805
'0:27.358',-0.800
'0:27.361',-0.810
'0:27.364',-0.820
'0:27.367',-0.805
'0:27.369',-0.815
'0:27.372',-0.820
'0:27.375',-0.825
'0:27.378',-0.815
'0:27.381',-0.810
'0:27.383',-0.805
'0:27.386',-0.790
'0:27.389',-0.790
'0:27.392',-0.800
'0:27.394',-0.800
'0:27.397',-0.810
'0:27.400',-0.800
'0:27.403',-0.805
'0:27.406',-0.800
'0:27.408',-0.805
'0:27.411',-0.800
'0:27.414',-0.785
'0:27.417',-0.765
'0:27.419',-0.750
'0:27.422',-0.745
'0:27.425',-0.735
'0:27.428',-0.715
'0:27.431',-0.715
'0:27.433',-0.715
'0:27.436',-0.720
'0:27.439',-0.720
'0:27.442',-0.705
'0:27.444',-0.720
'0:27.447',-0.700
'0:27.450',-0.695
'0:27.453',-0.680
'0:27.456',-0.675
'0:27.458',-0.665
'0:27.461',-0.665
'0:27.464',-0.675
'0:27.467',-0.700
'0:27.469',-0.715
'0:27.472',-0.730
'0:27.475',-0.740
'0:27.478',-0.750
'0:27.481',-0.760
'0:27.483',-0.760
'0:27.486',-0.760
'0:27.489',-0.755
'0:27.492',-0.740
'0:27.494',-0.750
'0:27.497',-0.770
'0:27.500',-0.780
'0:27.503',-0.800
'0:27.506',-0.820
'0:27.508',-0.835
'0:27.511',-0.840
'0:27.514',-0.840
'0:27.517',-0.845
'0:27.519',-0.835
'0:27.522',-0.830
'0:27.525',-0.835
'0:27.528',-0.840
'0:27.531',-0.845
'0:27.533',-0.855
'0:27.536',-0.850
'0:27.539',-0.865
'0:27.542',-0.850
'0:27.544',-0.855
'0:27.547',-0.840
'0:27.550',-0.835
'0:27.553',-0.820
'0:27.556',-0.820
'0:27.558',-0.820
'0:27.561',-0.820
'0:27.564',-0.815
'0:27.567',-0.830
'0:27.569',-0.835
'0:27.572',-0.845
'0:27.575',-0.840
'0:27.578',-0.835
'0:27.581',-0.835
'0:27.583',-0.825
'0:27.586',-0.815
'0:27.589',-0.780
'0:27.592',-0.755
'0:27.594',-0.695
'0:27.597',-0.620
'0:27.600',-0.505
'0:27.603',-0.360
'0:27.606',-0.215
'0:27.608',-0.060
'0:27.611',0.025
'0:27.614',0.020
'0:27.617',-0.060
'0:27.619',-0.210
'0:27.622',-0.370
'0:27.625',-0.545
'0:27.628',-0.750
'0:27.631',-0.935
'0:27.633',-1.075
'0:27.636',-1.145
'0:27.639',-1.145
'0:27.642',-1.100
'0:27.644',-1.080
'0:27.647',-1.060
'0:27.650',-1.060
'0:27.653',-1.045
'0:27.656',-1.040
'0:27.658',-1.025
'0:27.661',-1.000
'0:27.664',-0.975
'0:27.667',-0.960
'0:27.669',-0.950
'0:27.672',-0.945
'0:27.675',-0.940
'0:27.678',-0.930
'0:27.681',-0.930
'0:27.683',-0.925
'0:27.686',-0.920
'0:27.689',-0.925
'0:27.692',-0.920
'0:27.694',-0.920
'0:27.697',-0.920
'0:27.700',-0.930
'0:27.703',-0.935
'0:27.706',-0.950
'0:27.708',-0.950
'0:27.711',-0.935
'0:27.714',-0.935
'0:27.717',-0.930
'0:27.719',-0.935
'0:27.722',-0.925
'0:27.725',-0.925
'0:27.728',-0.930
'0:27.731',-0.945
'0:27.733',-0.950
'0:27.736',-0.945
'0:27.739',-0.960
'0:27.742',-0.960
'0:27.744',-0.960
'0:27.747',-0.960
'0:27.750',-0.960
'0:27.753',-0.950
'0:27.756',-0.940
'0:27.758',-0.950
'0:27.761',-0.950
'0:27.764',-0.965
'0:27.767',-0.980
'0:27.769',-0.985
'0:27.772',-0.995
'0:27.775',-0.985
'0:27.778',-0.990
'0:27.781',-0.990
'0:27.783',-0.980
'0:27.786',-0.990
'0:27.789',-0.985
'0:27.792',-0.990
'0:27.794',-1.000
'0:27.797',-1.010
'0:27.800',-1.025
'0:27.803',-1.020
'0:27.806',-1.030
'0:27.808',-1.045
'0:27.811',-1.035
'0:27.814',-1.030
'0:27.817',-1.025
'0:27.819',-1.025
'0:27.822',-1.030
'0:27.825',-1.030
'0:27.828',-1.035
'0:27.831',-1.045
'0:27.833',-1.060
'0:27.836',-1.060
'0:27.839',-1.075
'0:27.842',-1.065
'0:27.844',-1.070
'0:27.847',-1.060
'0:27.850',-1.045
'0:27.853',-1.030
'0:27.856',-1.025
'0:27.858',-1.025
'0:27.861',-1.030
'0:27.864',-1.025
'0:27.867',-1.025
'0:27.869',-1.030
'0:27.872',-1.025
'0:27.875',-1.015
'0:27.878',-1.015
'0:27.881',-0.985
'0:27.883',-0.970
'0:27.886',-0.955
'0:27.889',-0.945
'0:27.892',-0.930
'0:27.894',-0.920
'0:27.897',-0.910
'0:27.900',-0.900
'0:27.903',-0.890
'0:27.906',-0.860
'0:27.908',-0.850
'0:27.911',-0.820
'0:27.914',-0.790
'0:27.917',-0.775
'0:27.919',-0.740
'0:27.922',-0.730
'0:27.925',-0.735
'0:27.928',-0.715
'0:27.931',-0.700
'0:27.933',-0.690
'0:27.936',-0.690
'0:27.939',-0.675
'0:27.942',-0.680
'0:27.944',-0.670
'0:27.947',-0.670
'0:27.950',-0.660
'0:27.953',-0.660
'0:27.956',-0.655
'0:27.958',-0.655
'0:27.961',-0.665
'0:27.964',-0.665
'0:27.967',-0.670
'0:27.969',-0.685
'0:27.972',-0.685
'0:27.975',-0.690
'0:27.978',-0.690
'0:27.981',-0.700
'0:27.983',-0.685
'0:27.986',-0.690
'0:27.989',-0.670
'0:27.992',-0.685
'0:27.994',-0.685
'0:27.997',-0.705
'0:28.000',-0.705
'0:28.003',-0.715
'0:28.006',-0.735
'0:28.008',-0.725
'0:28.011',-0.735
'0:28.014',-0.720
'0:28.017',-0.720
'0:28.019',-0.730
'0:28.022',-0.715
'0:28.025',-0.705
'0:28.028',-0.705
'0:28.031',-0.715
'0:28.033',-0.715
'0:28.036',-0.735
'0:28.039',-0.740
'0:28.042',-0.730
'0:28.044',-0.730
'0:28.047',-0.735
'0:28.050',-0.725
'0:28.053',-0.725
'0:28.056',-0.715
'0:28.058',-0.720
'0:28.061',-0.725
'0:28.064',-0.730
'0:28.067',-0.755
'0:28.069',-0.755
'0:28.072',-0.755
'0:28.075',-0.755
'0:28.078',-0.730
'0:28.081',-0.730
'0:28.083',-0.730
'0:28.086',-0.720
'0:28.089',-0.720
'0:28.092',-0.720
'0:28.094',-0.710
'0:28.097',-0.720
'0:28.100',-0.730
'0:28.103',-0.735
'0:28.106',-0.735
'0:28.108',-0.730
'0:28.111',-0.735
'0:28.114',-0.725
'0:28.117',-0.715
'0:28.119',-0.700
'0:28.122',-0.700
'0:28.125',-0.690
'0:28.128',-0.680
'0:28.131',-0.680
'0:28.133',-0.670
'0:28.136',-0.680
'0:28.139',-0.655
'0:28.142',-0.650
'0:28.144',-0.655
'0:28.147',-0.640
'0:28.150',-0.630
'0:28.153',-0.625
'0:28.156',-0.625
'0:28.158',-0.640
'0:28.161',-0.640
'0:28.164',-0.650
'0:28.167',-0.645
'0:28.169',-0.635
'0:28.172',-0.625
'0:28.175',-0.605
'0:28.178',-0.610
'0:28.181',-0.630
'0:28.183',-0.635
'0:28.186',-0.645
'0:28.189',-0.660
'0:28.192',-0.690
'0:28.194',-0.690
'0:28.197',-0.695
'0:28.200',-0.715
'0:28.203',-0.730
'0:28.206',-0.725
'0:28.208',-0.735
'0:28.211',-0.750
'0:28.214',-0.770
'0:28.217',-0.790
'0:28.219',-0.775
'0:28.222',-0.780
'0:28.225',-0.775
'0:28.228',-0.790
'0:28.231',-0.800
'0:28.233',-0.805
'0:28.236',-0.805
'0:28.239',-0.800
'0:28.242',-0.815
'0:28.244',-0.800
'0:28.247',-0.805
'0:28.250',-0.795
'0:28.253',-0.785
'0:28.256',-0.775
'0:28.258',-0.780
'0:28.261',-0.790
'0:28.264',-0.805
'0:28.267',-0.805
'0:28.269',-0.815
'0:28.272',-0.810
'0:28.275',-0.805
'0:28.278',-0.805
'0:28.281',-0.800
'0:28.283',-0.795
'0:28.286',-0.785
'0:28.289',-0.770
'0:28.292',-0.765
'0:28.294',-0.735
'0:28.297',-0.690
'0:28.300',-0.630
'0:28.303',-0.545
'0:28.306',-0.435
'0:28.308',-0.295
'0:28.311',-0.150
'0:28.314',0.005
'0:28.317',0.115
'0:28.319',0.150
'0:28.322',0.110
'0:28.325',-0.010
'0:28.328',-0.165
'0:28.331',-0.315
'0:28.333',-0.460
'0:28.336',-0.630
'0:28.339',-0.795
'0:28.342',-0.935
'0:28.344',-1.010
'0:28.347',-1.025
'0:28.350',-1.000
'0:28.353',-0.965
'0:28.356',-0.935
'0:28.358',-0.910
'0:28.361',-0.885
'0:28.364',-0.865
'0:28.367',-0.870
'0:28.369',-0.885
'0:28.372',-0.900
'0:28.375',-0.905
'0:28.378',-0.910
'0:28.381',-0.895
'0:28.383',-0.880
'0:28.386',-0.875
'0:28.389',-0.865
'0:28.392',-0.875
'0:28.394',-0.875
'0:28.397',-0.890
'0:28.400',-0.900
'0:28.403',-0.910
'0:28.406',-0.900
'0:28.408',-0.915
'0:28.411',-0.915
'0:28.414',-0.905
'0:28.417',-0.905
'0:28.419',-0.915
'0:28.422',-0.900
'0:28.425',-0.915
'0:28.428',-0.905
'0:28.431',-0.895
'0:28.433',-0.910
'0:28.436',-0.925
'0:28.439',-0.930
'0:28.442',-0.915
'0:28.444',-0.940
'0:28.447',-0.930
'0:28.450',-0.925
'0:28.453',-0.925
'0:28.456',-0.920
'0:28.458',-0.930
'0:28.461',-0.935
'0:28.464',-0.930
'0:28.467',-0.940
'0:28.469',-0.940
'0:28.472',-0.955
'0:28.475',-0.965
'0:28.478',-0.960
'0:28.481',-0.965
'0:28.483',-0.965
'0:28.486',-0.955
'0:28.489',-0.950
'0:28.492',-0.960
'0:28.494',-0.970
'0:28.497',-0.970
'0:28.500',-0.980
'0:28.503',-0.990
'0:28.506',-1.005
'0:28.508',-1.005
'0:28.511',-1.010
