'Elapsed time','ECG I'
'hh:mm:ss.mmm','mV'
'0:00.000',0.590
'0:00.002',0.610
'0:00.004',0.635
'0:00.006',0.615
'0:00.008',0.565
'0:00.010',0.495
'0:00.012',0.480
'0:00.014',0.465
'0:00.016',0.485
'0:00.018',0.570
'0:00.020',0.665
'0:00.022',0.690
'0:00.024',0.680
'0:00.026',0.655
'0:00.028',0.605
'0:00.030',0.525
'0:00.032',0.505
'0:00.034',0.470
'0:00.036',0.505
'0:00.038',0.540
'0:00.040',0.620
'0:00.042',0.620
'0:00.044',0.630
'0:00.046',0.595
'0:00.048',0.505
'0:00.050',0.425
'0:00.052',0.415
'0:00.054',0.400
'0:00.056',0.415
'0:00.058',0.485
'0:00.060',0.525
'0:00.062',0.515
'0:00.064',0.545
'0:00.066',0.510
'0:00.068',0.440
'0:00.070',0.375
'0:00.072',0.350
'0:00.074',0.335
'0:00.076',0.365
'0:00.078',0.440
'0:00.080',0.490
'0:00.082',0.575
'0:00.084',0.530
'0:00.086',0.485
'0:00.088',0.430
'0:00.090',0.365
'0:00.092',0.355
'0:00.094',0.365
'0:00.096',0.405
'0:00.098',0.470
'0:00.100',0.515
'0:00.102',0.555
'0:00.104',0.565
'0:00.106',0.540
'0:00.108',0.480
'0:00.110',0.425
'0:00.112',0.400
'0:00.114',0.390
'0:00.116',0.440
'0:00.118',0.505
'0:00.120',0.585
'0:00.122',0.615
'0:00.124',0.610
'0:00.126',0.570
'0:00.128',0.540
'0:00.130',0.485
'0:00.132',0.460
'0:00.134',0.475
'0:00.136',0.520
'0:00.138',0.595
'0:00.140',0.660
'0:00.142',0.655
'0:00.144',0.665
'0:00.146',0.640
'0:00.148',0.570
'0:00.150',0.540
'0:00.152',0.535
'0:00.154',0.540
'0:00.156',0.570
'0:00.158',0.660
'0:00.160',0.695
'0:00.162',0.730
'0:00.164',0.730
'0:00.166',0.705
'0:00.168',0.630
'0:00.170',0.605
'0:00.172',0.590
'0:00.174',0.590
'0:00.176',0.625
'0:00.178',0.715
'0:00.180',0.760
'0:00.182',0.790
'0:00.184',0.780
'0:00.186',0.735
'0:00.188',0.675
'0:00.190',0.645
'0:00.192',0.645
'0:00.194',0.660
'0:00.196',0.700
'0:00.198',0.775
'0:00.200',0.805
'0:00.202',0.845
'0:00.204',0.835
'0:00.206',0.790
'0:00.208',0.730
'0:00.210',0.710
'0:00.212',0.680
'0:00.214',0.705
'0:00.216',0.760
'0:00.218',0.855
'0:00.220',0.870
'0:00.222',0.885
'0:00.224',0.885
'0:00.226',0.840
'0:00.228',0.750
'0:00.230',0.735
'0:00.232',0.715
'0:00.234',0.740
'0:00.236',0.795
'0:00.238',0.865
'0:00.240',0.900
'0:00.242',0.905
'0:00.244',0.940
'0:00.246',0.875
'0:00.248',0.770
'0:00.250',0.745
'0:00.252',0.755
'0:00.254',0.765
'0:00.256',0.820
'0:00.258',0.935
'0:00.260',0.930
'0:00.262',0.970
'0:00.264',0.935
'0:00.266',0.890
'0:00.268',0.820
'0:00.270',0.820
'0:00.272',0.805
'0:00.274',0.835
'0:00.276',0.905
'0:00.278',1.005
'0:00.280',1.010
'0:00.282',1.035
'0:00.284',1.005
'0:00.286',0.935
'0:00.288',0.870
'0:00.290',0.850
'0:00.292',0.840
'0:00.294',0.890
'0:00.296',0.995
'0:00.298',1.150
'0:00.300',1.255
'0:00.302',1.325
'0:00.304',1.365
'0:00.306',1.400
'0:00.308',1.420
'0:00.310',1.460
'0:00.312',1.435
'0:00.314',1.395
'0:00.316',1.370
'0:00.318',1.305
'0:00.320',1.285
'0:00.322',1.230
'0:00.324',1.120
'0:00.326',0.950
'0:00.328',0.750
'0:00.330',0.645
'0:00.332',0.645
'0:00.334',0.750
'0:00.336',0.845
'0:00.338',0.930
'0:00.340',0.995
'0:00.342',1.020
'0:00.344',1.030
'0:00.346',1.000
'0:00.348',0.960
'0:00.350',0.975
'0:00.352',0.990
'0:00.354',1.045
'0:00.356',1.165
'0:00.358',1.250
'0:00.360',1.295
'0:00.362',1.305
'0:00.364',1.275
'0:00.366',1.215
'0:00.368',1.180
'0:00.370',1.185
'0:00.372',1.200
'0:00.374',1.235
'0:00.376',1.320
'0:00.378',1.410
'0:00.380',1.420
'0:00.382',1.420
'0:00.384',1.390
'0:00.386',1.330
'0:00.388',1.300
'0:00.390',1.295
'0:00.392',1.280
'0:00.394',1.335
'0:00.396',1.425
'0:00.398',1.460
'0:00.400',1.500
'0:00.402',1.525
'0:00.404',1.480
'0:00.406',1.430
'0:00.408',1.395
'0:00.410',1.380
'0:00.412',1.405
'0:00.414',1.435
'0:00.416',1.525
'0:00.418',1.600
'0:00.420',1.600
'0:00.422',1.620
'0:00.424',1.590
'0:00.426',1.545
'0:00.428',1.480
'0:00.430',1.475
'0:00.432',1.500
'0:00.434',1.545
'0:00.436',1.630
'0:00.438',1.685
'0:00.440',1.725
'0:00.442',1.730
'0:00.444',1.680
'0:00.446',1.655
'0:00.448',1.620
'0:00.450',1.600
'0:00.452',1.645
'0:00.454',1.685
'0:00.456',1.785
'0:00.458',1.820
'0:00.460',1.865
'0:00.462',1.865
'0:00.464',1.830
'0:00.466',1.780
'0:00.468',1.765
'0:00.470',1.750
'0:00.472',1.765
'0:00.474',1.860
'0:00.476',1.945
'0:00.478',1.970
'0:00.480',2.000
'0:00.482',2.020
'0:00.484',1.960
'0:00.486',1.890
'0:00.488',1.885
'0:00.490',1.870
'0:00.492',1.905
'0:00.494',1.930
'0:00.496',2.020
'0:00.498',2.035
'0:00.500',2.050
'0:00.502',2.045
'0:00.504',2.010
'0:00.506',1.920
'0:00.508',1.890
'0:00.510',1.870
'0:00.512',1.885
'0:00.514',1.920
'0:00.516',1.970
'0:00.518',2.030
'0:00.520',2.035
'0:00.522',2.025
'0:00.524',1.970
'0:00.526',1.860
'0:00.528',1.815
'0:00.530',1.790
'0:00.532',1.830
'0:00.534',1.840
'0:00.536',1.935
'0:00.538',1.955
'0:00.540',1.950
'0:00.542',1.920
'0:00.544',1.870
'0:00.546',1.800
'0:00.548',1.770
'0:00.550',1.760
'0:00.552',1.810
'0:00.554',1.820
'0:00.556',1.910
'0:00.558',1.930
'0:00.560',1.930
'0:00.562',1.935
'0:00.564',1.895
'0:00.566',1.790
'0:00.568',1.805
'0:00.570',1.790
'0:00.572',1.825
'0:00.574',1.880
'0:00.576',1.960
'0:00.578',1.990
'0:00.580',2.010
'0:00.582',1.985
'0:00.584',1.935
'0:00.586',1.865
'0:00.588',1.855
'0:00.590',1.870
'0:00.592',1.855
'0:00.594',1.925
'0:00.596',2.005
'0:00.598',2.020
'0:00.600',2.030
'0:00.602',2.030
'0:00.604',1.980
'0:00.606',1.905
'0:00.608',1.885
'0:00.610',1.890
'0:00.612',1.910
'0:00.614',1.965
'0:00.616',2.035
'0:00.618',2.040
'0:00.620',2.060
'0:00.622',2.055
'0:00.624',2.005
'0:00.626',1.940
'0:00.628',1.925
'0:00.630',1.930
'0:00.632',1.990
'0:00.634',2.035
'0:00.636',2.085
'0:00.638',2.110
'0:00.640',2.120
'0:00.642',2.090
'0:00.644',2.035
'0:00.646',1.975
'0:00.648',1.970
'0:00.650',1.975
'0:00.652',2.005
'0:00.654',2.075
'0:00.656',2.125
'0:00.658',2.145
'0:00.660',2.165
'0:00.662',2.125
'0:00.664',2.065
'0:00.666',2.030
'0:00.668',1.990
'0:00.670',1.995
'0:00.672',2.015
'0:00.674',2.100
'0:00.676',2.190
'0:00.678',2.170
'0:00.680',2.110
'0:00.682',2.105
'0:00.684',2.075
'0:00.686',2.060
'0:00.688',2.035
'0:00.690',2.020
'0:00.692',2.080
'0:00.694',2.125
'0:00.696',2.160
'0:00.698',2.185
'0:00.700',2.190
'0:00.702',2.140
'0:00.704',2.075
'0:00.706',2.015
'0:00.708',2.005
'0:00.710',2.000
'0:00.712',2.035
'0:00.714',2.090
'0:00.716',2.120
'0:00.718',2.160
'0:00.720',2.165
'0:00.722',2.115
'0:00.724',2.045
'0:00.726',2.000
'0:00.728',1.990
'0:00.730',2.015
'0:00.732',2.035
'0:00.734',2.115
'0:00.736',2.135
'0:00.738',2.160
'0:00.740',2.160
'0:00.742',2.115
'0:00.744',2.030
'0:00.746',2.015
'0:00.748',2.000
'0:00.750',2.010
'0:00.752',2.060
'0:00.754',2.105
'0:00.756',2.135
'0:00.758',2.145
'0:00.760',2.155
'0:00.762',2.115
'0:00.764',2.050
'0:00.766',2.055
'0:00.768',2.075
'0:00.770',2.180
'0:00.772',2.285
'0:00.774',2.400
'0:00.776',2.485
'0:00.778',2.600
'0:00.780',2.650
'0:00.782',2.615
'0:00.784',2.455
'0:00.786',2.340
'0:00.788',2.165
'0:00.790',2.095
'0:00.792',2.085
'0:00.794',2.085
'0:00.796',2.010
'0:00.798',1.920
'0:00.800',1.810
'0:00.802',1.800
'0:00.804',1.745
'0:00.806',1.735
'0:00.808',1.735
'0:00.810',1.795
'0:00.812',1.885
'0:00.814',1.985
'0:00.816',2.035
'0:00.818',2.100
'0:00.820',2.095
'0:00.822',2.090
'0:00.824',2.025
'0:00.826',2.020
'0:00.828',2.015
'0:00.830',2.065
'0:00.832',2.145
'0:00.834',2.205
'0:00.836',2.225
'0:00.838',2.235
'0:00.840',2.205
'0:00.842',2.185
'0:00.844',2.130
'0:00.846',2.085
'0:00.848',2.065
'0:00.850',2.100
'0:00.852',2.155
'0:00.854',2.230
'0:00.856',2.255
'0:00.858',2.265
'0:00.860',2.255
'0:00.862',2.195
'0:00.864',2.120
'0:00.866',2.110
'0:00.868',2.085
'0:00.870',2.135
'0:00.872',2.210
'0:00.874',2.250
'0:00.876',2.265
'0:00.878',2.285
'0:00.880',2.250
'0:00.882',2.200
'0:00.884',2.135
'0:00.886',2.145
'0:00.888',2.145
'0:00.890',2.170
'0:00.892',2.220
'0:00.894',2.315
'0:00.896',2.305
'0:00.898',2.305
'0:00.900',2.290
'0:00.902',2.255
'0:00.904',2.185
'0:00.906',2.165
'0:00.908',2.190
'0:00.910',2.185
'0:00.912',2.250
'0:00.914',2.320
'0:00.916',2.365
'0:00.918',2.385
'0:00.920',2.350
'0:00.922',2.305
'0:00.924',2.285
'0:00.926',2.285
'0:00.928',2.250
'0:00.930',2.280
'0:00.932',2.375
'0:00.934',2.435
'0:00.936',2.435
'0:00.938',2.460
'0:00.940',2.445
'0:00.942',2.395
'0:00.944',2.350
'0:00.946',2.335
'0:00.948',2.335
'0:00.950',2.385
'0:00.952',2.455
'0:00.954',2.490
'0:00.956',2.505
'0:00.958',2.520
'0:00.960',2.500
'0:00.962',2.435
'0:00.964',2.380
'0:00.966',2.345
'0:00.968',2.335
'0:00.970',2.365
'0:00.972',2.435
'0:00.974',2.455
'0:00.976',2.470
'0:00.978',2.485
'0:00.980',2.420
'0:00.982',2.340
'0:00.984',2.295
'0:00.986',2.280
'0:00.988',2.275
'0:00.990',2.285
'0:00.992',2.340
'0:00.994',2.360
'0:00.996',2.370
'0:00.998',2.330
'0:01.000',2.280
'0:01.002',2.200
'0:01.004',2.120
'0:01.006',2.110
'0:01.008',2.100
'0:01.010',2.135
'0:01.012',2.185
'0:01.014',2.215
'0:01.016',2.230
'0:01.018',2.225
'0:01.020',2.190
'0:01.022',2.090
'0:01.024',2.050
'0:01.026',2.050
'0:01.028',2.035
'0:01.030',2.065
'0:01.032',2.140
'0:01.034',2.175
'0:01.036',2.200
'0:01.038',2.190
'0:01.040',2.135
'0:01.042',2.040
'0:01.044',2.020
'0:01.046',2.000
'0:01.048',2.015
'0:01.050',2.065
'0:01.052',2.145
'0:01.054',2.165
'0:01.056',2.190
'0:01.058',2.170
'0:01.060',2.115
'0:01.062',2.025
'0:01.064',2.015
'0:01.066',2.000
'0:01.068',2.035
'0:01.070',2.065
'0:01.072',2.135
'0:01.074',2.180
'0:01.076',2.205
'0:01.078',2.180
'0:01.080',2.110
'0:01.082',2.010
'0:01.084',1.990
'0:01.086',1.975
'0:01.088',1.995
'0:01.090',2.040
'0:01.092',2.125
'0:01.094',2.140
'0:01.096',2.160
'0:01.098',2.130
'0:01.100',2.120
'0:01.102',2.015
'0:01.104',2.005
'0:01.106',1.985
'0:01.108',2.000
'0:01.110',2.065
'0:01.112',2.115
'0:01.114',2.140
'0:01.116',2.160
'0:01.118',2.140
'0:01.120',2.080
'0:01.122',1.985
'0:01.124',1.970
'0:01.126',1.970
'0:01.128',2.000
'0:01.130',2.045
'0:01.132',2.120
'0:01.134',2.120
'0:01.136',2.140
'0:01.138',2.105
'0:01.140',2.055
'0:01.142',1.945
'0:01.144',1.950
'0:01.146',1.920
'0:01.148',1.950
'0:01.150',2.025
'0:01.152',2.090
'0:01.154',2.115
'0:01.156',2.120
'0:01.158',2.060
'0:01.160',2.050
'0:01.162',1.975
'0:01.164',1.940
'0:01.166',1.925
'0:01.168',1.960
'0:01.170',1.995
'0:01.172',2.080
'0:01.174',2.100
'0:01.176',2.115
'0:01.178',2.060
'0:01.180',1.970
'0:01.182',1.915
'0:01.184',1.895
'0:01.186',1.855
'0:01.188',1.900
'0:01.190',1.955
'0:01.192',2.020
'0:01.194',2.045
'0:01.196',2.070
'0:01.198',1.990
'0:01.200',1.950
'0:01.202',1.865
'0:01.204',1.840
'0:01.206',1.850
'0:01.208',1.905
'0:01.210',1.940
'0:01.212',1.995
'0:01.214',2.015
'0:01.216',2.005
'0:01.218',1.985
'0:01.220',1.890
'0:01.222',1.825
'0:01.224',1.815
'0:01.226',1.800
'0:01.228',1.805
'0:01.230',1.880
'0:01.232',1.930
'0:01.234',1.965
'0:01.236',1.970
'0:01.238',1.910
'0:01.240',1.850
'0:01.242',1.870
'0:01.244',1.885
'0:01.246',1.945
'0:01.248',2.090
'0:01.250',2.245
'0:01.252',2.360
'0:01.254',2.415
'0:01.256',2.460
'0:01.258',2.375
'0:01.260',2.175
'0:01.262',2.005
'0:01.264',1.840
'0:01.266',1.775
'0:01.268',1.730
'0:01.270',1.735
'0:01.272',1.675
'0:01.274',1.605
'0:01.276',1.560
'0:01.278',1.505
'0:01.280',1.445
'0:01.282',1.450
'0:01.284',1.465
'0:01.286',1.515
'0:01.288',1.595
'0:01.290',1.710
'0:01.292',1.760
'0:01.294',1.810
'0:01.296',1.850
'0:01.298',1.810
'0:01.300',1.745
'0:01.302',1.740
'0:01.304',1.715
'0:01.306',1.725
'0:01.308',1.780
'0:01.310',1.870
'0:01.312',1.890
'0:01.314',1.930
'0:01.316',1.920
'0:01.318',1.865
'0:01.320',1.770
'0:01.322',1.740
'0:01.324',1.730
'0:01.326',1.730
'0:01.328',1.790
'0:01.330',1.875
'0:01.332',1.935
'0:01.334',1.920
'0:01.336',1.905
'0:01.338',1.845
'0:01.340',1.785
'0:01.342',1.765
'0:01.344',1.710
'0:01.346',1.740
'0:01.348',1.785
'0:01.350',1.855
'0:01.352',1.900
'0:01.354',1.920
'0:01.356',1.890
'0:01.358',1.825
'0:01.360',1.755
'0:01.362',1.720
'0:01.364',1.710
'0:01.366',1.735
'0:01.368',1.780
'0:01.370',1.865
'0:01.372',1.905
'0:01.374',1.920
'0:01.376',1.895
'0:01.378',1.850
'0:01.380',1.785
'0:01.382',1.765
'0:01.384',1.740
'0:01.386',1.755
'0:01.388',1.830
'0:01.390',1.900
'0:01.392',1.920
'0:01.394',1.950
'0:01.396',1.925
'0:01.398',1.915
'0:01.400',1.825
'0:01.402',1.810
'0:01.404',1.800
'0:01.406',1.835
'0:01.408',1.875
'0:01.410',1.970
'0:01.412',2.000
'0:01.414',2.025
'0:01.416',1.995
'0:01.418',1.945
'0:01.420',1.865
'0:01.422',1.840
'0:01.424',1.860
'0:01.426',1.885
'0:01.428',1.950
'0:01.430',2.040
'0:01.432',2.040
'0:01.434',2.035
'0:01.436',2.010
'0:01.438',1.915
'0:01.440',1.880
'0:01.442',1.870
'0:01.444',1.850
'0:01.446',1.835
'0:01.448',1.890
'0:01.450',1.960
'0:01.452',1.965
'0:01.454',1.995
'0:01.456',1.960
'0:01.458',1.855
'0:01.460',1.770
'0:01.462',1.720
'0:01.464',1.695
'0:01.466',1.725
'0:01.468',1.790
'0:01.470',1.820
'0:01.472',1.845
'0:01.474',1.820
'0:01.476',1.765
'0:01.478',1.675
'0:01.480',1.610
'0:01.482',1.570
'0:01.484',1.535
'0:01.486',1.595
'0:01.488',1.630
'0:01.490',1.685
'0:01.492',1.685
'0:01.494',1.695
'0:01.496',1.635
'0:01.498',1.580
'0:01.500',1.525
'0:01.502',1.480
'0:01.504',1.465
'0:01.506',1.525
'0:01.508',1.570
'0:01.510',1.640
'0:01.512',1.645
'0:01.514',1.655
'0:01.516',1.585
'0:01.518',1.540
'0:01.520',1.475
'0:01.522',1.445
'0:01.524',1.440
'0:01.526',1.505
'0:01.528',1.565
'0:01.530',1.605
'0:01.532',1.625
'0:01.534',1.605
'0:01.536',1.575
'0:01.538',1.510
'0:01.540',1.465
'0:01.542',1.405
'0:01.544',1.400
'0:01.546',1.475
'0:01.548',1.535
'0:01.550',1.590
'0:01.552',1.590
'0:01.554',1.600
'0:01.556',1.550
'0:01.558',1.470
'0:01.560',1.410
'0:01.562',1.410
'0:01.564',1.420
'0:01.566',1.460
'0:01.568',1.540
'0:01.570',1.565
'0:01.572',1.555
'0:01.574',1.565
'0:01.576',1.545
'0:01.578',1.445
'0:01.580',1.415
'0:01.582',1.380
'0:01.584',1.365
'0:01.586',1.410
'0:01.588',1.515
'0:01.590',1.545
'0:01.592',1.535
'0:01.594',1.575
'0:01.596',1.485
'0:01.598',1.420
'0:01.600',1.400
'0:01.602',1.325
'0:01.604',1.270
'0:01.606',1.425
'0:01.608',1.580
'0:01.610',1.535
'0:01.612',1.570
'0:01.614',1.555
'0:01.616',1.505
'0:01.618',1.400
'0:01.620',1.315
'0:01.622',1.290
'0:01.624',1.320
'0:01.626',1.440
'0:01.628',1.500
'0:01.630',1.490
'0:01.632',1.485
'0:01.634',1.475
'0:01.636',1.500
'0:01.638',1.370
'0:01.640',1.340
'0:01.642',1.330
'0:01.644',1.330
'0:01.646',1.390
'0:01.648',1.430
'0:01.650',1.445
'0:01.652',1.465
'0:01.654',1.420
'0:01.656',1.390
'0:01.658',1.285
'0:01.660',1.255
'0:01.662',1.220
'0:01.664',1.245
'0:01.666',1.300
'0:01.668',1.380
'0:01.670',1.410
'0:01.672',1.425
'0:01.674',1.365
'0:01.676',1.315
'0:01.678',1.235
'0:01.680',1.205
'0:01.682',1.195
'0:01.684',1.210
'0:01.686',1.255
'0:01.688',1.365
'0:01.690',1.355
'0:01.692',1.390
'0:01.694',1.330
'0:01.696',1.310
'0:01.698',1.205
'0:01.700',1.205
'0:01.702',1.195
'0:01.704',1.220
'0:01.706',1.255
'0:01.708',1.285
'0:01.710',1.310
'0:01.712',1.335
'0:01.714',1.320
'0:01.716',1.235
'0:01.718',1.160
'0:01.720',1.115
'0:01.722',1.135
'0:01.724',1.215
'0:01.726',1.345
'0:01.728',1.485
'0:01.730',1.545
'0:01.732',1.650
'0:01.734',1.675
'0:01.736',1.690
'0:01.738',1.615
'0:01.740',1.535
'0:01.742',1.430
'0:01.744',1.330
'0:01.746',1.220
'0:01.748',1.250
'0:01.750',1.215
'0:01.752',1.115
'0:01.754',0.970
'0:01.756',0.800
'0:01.758',0.695
'0:01.760',0.675
'0:01.762',0.735
'0:01.764',0.820
'0:01.766',0.925
'0:01.768',1.030
'0:01.770',1.025
'0:01.772',1.095
'0:01.774',1.110
'0:01.776',1.075
'0:01.778',1.040
'0:01.780',1.025
'0:01.782',1.040
'0:01.784',1.070
'0:01.786',1.155
'0:01.788',1.205
'0:01.790',1.250
'0:01.792',1.245
'0:01.794',1.240
'0:01.796',1.140
'0:01.798',1.080
'0:01.800',1.090
'0:01.802',1.075
'0:01.804',1.115
'0:01.806',1.190
'0:01.808',1.250
'0:01.810',1.245
'0:01.812',1.255
'0:01.814',1.200
'0:01.816',1.145
'0:01.818',1.055
'0:01.820',1.025
'0:01.822',1.030
'0:01.824',1.155
'0:01.826',1.175
'0:01.828',1.280
'0:01.830',1.275
'0:01.832',1.260
'0:01.834',1.185
'0:01.836',1.130
'0:01.838',1.070
'0:01.840',1.055
'0:01.842',1.055
'0:01.844',1.125
'0:01.846',1.230
'0:01.848',1.225
'0:01.850',1.285
'0:01.852',1.245
'0:01.854',1.205
'0:01.856',1.095
'0:01.858',1.080
'0:01.860',1.030
'0:01.862',1.060
'0:01.864',1.125
'0:01.866',1.225
'0:01.868',1.265
'0:01.870',1.285
'0:01.872',1.235
'0:01.874',1.205
'0:01.876',1.130
'0:01.878',1.095
'0:01.880',1.095
'0:01.882',1.140
'0:01.884',1.205
'0:01.886',1.280
'0:01.888',1.315
'0:01.890',1.335
'0:01.892',1.320
'0:01.894',1.275
'0:01.896',1.205
'0:01.898',1.180
'0:01.900',1.165
'0:01.902',1.210
'0:01.904',1.250
'0:01.906',1.380
'0:01.908',1.385
'0:01.910',1.380
'0:01.912',1.365
'0:01.914',1.325
'0:01.916',1.215
'0:01.918',1.165
'0:01.920',1.150
'0:01.922',1.165
'0:01.924',1.235
'0:01.926',1.315
'0:01.928',1.330
'0:01.930',1.340
'0:01.932',1.310
'0:01.934',1.240
'0:01.936',1.135
'0:01.938',1.125
'0:01.940',1.085
'0:01.942',1.095
'0:01.944',1.130
'0:01.946',1.215
'0:01.948',1.215
'0:01.950',1.205
'0:01.952',1.170
'0:01.954',1.095
'0:01.956',0.980
'0:01.958',0.940
'0:01.960',0.890
'0:01.962',0.915
'0:01.964',0.975
'0:01.966',1.075
'0:01.968',1.060
'0:01.970',1.045
'0:01.972',1.020
'0:01.974',0.930
'0:01.976',0.850
'0:01.978',0.840
'0:01.980',0.820
'0:01.982',0.830
'0:01.984',0.905
'0:01.986',0.980
'0:01.988',0.995
'0:01.990',1.030
'0:01.992',0.970
'0:01.994',0.900
'0:01.996',0.805
'0:01.998',0.780
'0:02.000',0.780
'0:02.002',0.820
'0:02.004',0.875
'0:02.006',0.950
'0:02.008',0.965
'0:02.010',0.950
'0:02.012',0.935
'0:02.014',0.845
'0:02.016',0.780
'0:02.018',0.795
'0:02.020',0.785
'0:02.022',0.815
'0:02.024',0.870
'0:02.026',0.930
'0:02.028',0.915
'0:02.030',0.935
'0:02.032',0.905
'0:02.034',0.865
'0:02.036',0.775
'0:02.038',0.745
'0:02.040',0.725
'0:02.042',0.765
'0:02.044',0.840
'0:02.046',0.910
'0:02.048',0.920
'0:02.050',0.910
'0:02.052',0.895
'0:02.054',0.805
'0:02.056',0.725
'0:02.058',0.700
'0:02.060',0.705
'0:02.062',0.770
'0:02.064',0.795
'0:02.066',0.870
'0:02.068',0.855
'0:02.070',0.890
'0:02.072',0.855
'0:02.074',0.770
'0:02.076',0.720
'0:02.078',0.670
'0:02.080',0.685
'0:02.082',0.695
'0:02.084',0.780
'0:02.086',0.850
'0:02.088',0.845
'0:02.090',0.835
'0:02.092',0.800
'0:02.094',0.745
'0:02.096',0.690
'0:02.098',0.645
'0:02.100',0.665
'0:02.102',0.720
'0:02.104',0.790
'0:02.106',0.850
'0:02.108',0.870
'0:02.110',0.855
'0:02.112',0.825
'0:02.114',0.720
'0:02.116',0.665
'0:02.118',0.630
'0:02.120',0.640
'0:02.122',0.710
'0:02.124',0.770
'0:02.126',0.805
'0:02.128',0.865
'0:02.130',0.835
'0:02.132',0.770
'0:02.134',0.680
'0:02.136',0.650
'0:02.138',0.630
'0:02.140',0.645
'0:02.142',0.660
'0:02.144',0.755
'0:02.146',0.795
'0:02.148',0.795
'0:02.150',0.775
'0:02.152',0.700
'0:02.154',0.610
'0:02.156',0.570
'0:02.158',0.545
'0:02.160',0.575
'0:02.162',0.605
'0:02.164',0.700
'0:02.166',0.710
'0:02.168',0.710
'0:02.170',0.720
'0:02.172',0.670
'0:02.174',0.570
'0:02.176',0.530
'0:02.178',0.535
'0:02.180',0.550
'0:02.182',0.565
'0:02.184',0.650
'0:02.186',0.675
'0:02.188',0.700
'0:02.190',0.690
'0:02.192',0.630
'0:02.194',0.540
'0:02.196',0.505
'0:02.198',0.485
'0:02.200',0.515
'0:02.202',0.535
'0:02.204',0.610
'0:02.206',0.660
'0:02.208',0.665
'0:02.210',0.665
'0:02.212',0.610
'0:02.214',0.510
'0:02.216',0.490
'0:02.218',0.555
'0:02.220',0.665
'0:02.222',0.770
'0:02.224',0.905
'0:02.226',1.015
'0:02.228',1.090
'0:02.230',1.130
'0:02.232',1.060
'0:02.234',0.855
'0:02.236',0.715
'0:02.238',0.560
'0:02.240',0.530
'0:02.242',0.510
'0:02.244',0.465
'0:02.246',0.370
'0:02.248',0.300
'0:02.250',0.240
'0:02.252',0.155
'0:02.254',0.115
'0:02.256',0.145
'0:02.258',0.170
'0:02.260',0.220
'0:02.262',0.270
'0:02.264',0.365
'0:02.266',0.450
'0:02.268',0.485
'0:02.270',0.515
'0:02.272',0.485
'0:02.274',0.405
'0:02.276',0.375
'0:02.278',0.415
'0:02.280',0.455
'0:02.282',0.505
'0:02.284',0.565
'0:02.286',0.600
'0:02.288',0.610
'0:02.290',0.560
'0:02.292',0.510
'0:02.294',0.465
'0:02.296',0.435
'0:02.298',0.435
'0:02.300',0.450
'0:02.302',0.500
'0:02.304',0.595
'0:02.306',0.610
'0:02.308',0.610
'0:02.310',0.560
'0:02.312',0.520
'0:02.314',0.465
'0:02.316',0.445
'0:02.318',0.450
'0:02.320',0.470
'0:02.322',0.510
'0:02.324',0.595
'0:02.326',0.630
'0:02.328',0.605
'0:02.330',0.575
'0:02.332',0.510
'0:02.334',0.435
'0:02.336',0.425
'0:02.338',0.430
'0:02.340',0.465
'0:02.342',0.555
'0:02.344',0.595
'0:02.346',0.620
'0:02.348',0.620
'0:02.350',0.590
'0:02.352',0.520
'0:02.354',0.485
'0:02.356',0.480
'0:02.358',0.470
'0:02.360',0.530
'0:02.362',0.600
'0:02.364',0.645
'0:02.366',0.680
'0:02.368',0.660
'0:02.370',0.585
'0:02.372',0.570
'0:02.374',0.535
'0:02.376',0.520
'0:02.378',0.525
'0:02.380',0.575
'0:02.382',0.675
'0:02.384',0.705
'0:02.386',0.735
'0:02.388',0.730
'0:02.390',0.665
'0:02.392',0.625
'0:02.394',0.590
'0:02.396',0.555
'0:02.398',0.580
'0:02.400',0.615
'0:02.402',0.705
'0:02.404',0.730
'0:02.406',0.765
'0:02.408',0.755
'0:02.410',0.705
'0:02.412',0.605
'0:02.414',0.565
'0:02.416',0.555
'0:02.418',0.560
'0:02.420',0.580
'0:02.422',0.670
'0:02.424',0.720
'0:02.426',0.720
'0:02.428',0.705
'0:02.430',0.630
'0:02.432',0.580
'0:02.434',0.500
'0:02.436',0.470
'0:02.438',0.490
'0:02.440',0.500
'0:02.442',0.575
'0:02.444',0.585
'0:02.446',0.575
'0:02.448',0.555
'0:02.450',0.495
'0:02.452',0.405
'0:02.454',0.350
'0:02.456',0.325
'0:02.458',0.330
'0:02.460',0.360
'0:02.462',0.445
'0:02.464',0.475
'0:02.466',0.475
'0:02.468',0.460
'0:02.470',0.385
'0:02.472',0.280
'0:02.474',0.275
'0:02.476',0.255
'0:02.478',0.270
'0:02.480',0.310
'0:02.482',0.405
'0:02.484',0.420
'0:02.486',0.425
'0:02.488',0.390
'0:02.490',0.330
'0:02.492',0.225
'0:02.494',0.225
'0:02.496',0.215
'0:02.498',0.255
'0:02.500',0.290
'0:02.502',0.370
'0:02.504',0.385
'0:02.506',0.405
'0:02.508',0.365
'0:02.510',0.320
'0:02.512',0.245
'0:02.514',0.220
'0:02.516',0.220
'0:02.518',0.225
'0:02.520',0.280
'0:02.522',0.360
'0:02.524',0.360
'0:02.526',0.380
'0:02.528',0.360
'0:02.530',0.295
'0:02.532',0.215
'0:02.534',0.200
'0:02.536',0.180
'0:02.538',0.205
'0:02.540',0.260
'0:02.542',0.325
'0:02.544',0.340
'0:02.546',0.355
'0:02.548',0.305
'0:02.550',0.255
'0:02.552',0.195
'0:02.554',0.170
'0:02.556',0.145
'0:02.558',0.180
'0:02.560',0.240
'0:02.562',0.295
'0:02.564',0.295
'0:02.566',0.325
'0:02.568',0.275
'0:02.570',0.215
'0:02.572',0.140
'0:02.574',0.125
'0:02.576',0.120
'0:02.578',0.155
'0:02.580',0.215
'0:02.582',0.255
'0:02.584',0.290
'0:02.586',0.295
'0:02.588',0.260
'0:02.590',0.200
'0:02.592',0.155
'0:02.594',0.115
'0:02.596',0.100
'0:02.598',0.140
'0:02.600',0.215
'0:02.602',0.280
'0:02.604',0.295
'0:02.606',0.270
'0:02.608',0.255
'0:02.610',0.185
'0:02.612',0.130
'0:02.614',0.110
'0:02.616',0.100
'0:02.618',0.145
'0:02.620',0.210
'0:02.622',0.260
'0:02.624',0.295
'0:02.626',0.275
'0:02.628',0.220
'0:02.630',0.155
'0:02.632',0.115
'0:02.634',0.090
'0:02.636',0.075
'0:02.638',0.140
'0:02.640',0.200
'0:02.642',0.240
'0:02.644',0.250
'0:02.646',0.260
'0:02.648',0.210
'0:02.650',0.160
'0:02.652',0.090
'0:02.654',0.065
'0:02.656',0.090
'0:02.658',0.125
'0:02.660',0.175
'0:02.662',0.225
'0:02.664',0.245
'0:02.666',0.205
'0:02.668',0.150
'0:02.670',0.085
'0:02.672',0.045
'0:02.674',0.025
'0:02.676',0.030
'0:02.678',0.060
'0:02.680',0.125
'0:02.682',0.170
'0:02.684',0.170
'0:02.686',0.170
'0:02.688',0.125
'0:02.690',0.065
'0:02.692',0.025
'0:02.694',0.005
'0:02.696',-0.005
'0:02.698',0.045
'0:02.700',0.120
'0:02.702',0.150
'0:02.704',0.165
'0:02.706',0.160
'0:02.708',0.105
'0:02.710',0.030
'0:02.712',0.015
'0:02.714',-0.020
'0:02.716',-0.055
'0:02.718',-0.005
'0:02.720',0.080
'0:02.722',0.125
'0:02.724',0.130
'0:02.726',0.120
'0:02.728',0.135
'0:02.730',0.115
'0:02.732',0.140
'0:02.734',0.190
'0:02.736',0.270
'0:02.738',0.385
'0:02.740',0.555
'0:02.742',0.605
'0:02.744',0.585
'0:02.746',0.470
'0:02.748',0.290
'0:02.750',0.120
'0:02.752',0.055
'0:02.754',-0.030
'0:02.756',-0.120
'0:02.758',-0.200
'0:02.760',-0.250
'0:02.762',-0.275
'0:02.764',-0.235
'0:02.766',-0.225
'0:02.768',-0.250
'0:02.770',-0.285
'0:02.772',-0.285
'0:02.774',-0.295
'0:02.776',-0.260
'0:02.778',-0.170
'0:02.780',-0.040
'0:02.782',-0.020
'0:02.784',0.020
'0:02.786',0.025
'0:02.788',-0.010
'0:02.790',-0.070
'0:02.792',-0.055
'0:02.794',-0.075
'0:02.796',-0.045
'0:02.798',0.005
'0:02.800',0.085
'0:02.802',0.100
'0:02.804',0.130
'0:02.806',0.105
'0:02.808',0.055
'0:02.810',-0.030
'0:02.812',-0.045
'0:02.814',-0.040
'0:02.816',-0.025
'0:02.818',0.025
'0:02.820',0.085
'0:02.822',0.105
'0:02.824',0.125
'0:02.826',0.090
'0:02.828',0.040
'0:02.830',-0.035
'0:02.832',-0.075
'0:02.834',-0.050
'0:02.836',-0.030
'0:02.838',0.025
'0:02.840',0.090
'0:02.842',0.110
'0:02.844',0.140
'0:02.846',0.110
'0:02.848',0.070
'0:02.850',-0.035
'0:02.852',-0.035
'0:02.854',-0.050
'0:02.856',0.010
'0:02.858',0.070
'0:02.860',0.145
'0:02.862',0.150
'0:02.864',0.135
'0:02.866',0.110
'0:02.868',0.055
'0:02.870',0.005
'0:02.872',0.000
'0:02.874',-0.010
'0:02.876',0.030
'0:02.878',0.090
'0:02.880',0.160
'0:02.882',0.190
'0:02.884',0.195
'0:02.886',0.175
'0:02.888',0.115
'0:02.890',0.065
'0:02.892',0.045
'0:02.894',0.050
'0:02.896',0.085
'0:02.898',0.165
'0:02.900',0.225
'0:02.902',0.255
'0:02.904',0.265
'0:02.906',0.230
'0:02.908',0.150
'0:02.910',0.090
'0:02.912',0.090
'0:02.914',0.085
'0:02.916',0.140
'0:02.918',0.200
'0:02.920',0.260
'0:02.922',0.270
'0:02.924',0.265
'0:02.926',0.220
'0:02.928',0.160
'0:02.930',0.100
'0:02.932',0.075
'0:02.934',0.065
'0:02.936',0.120
'0:02.938',0.170
'0:02.940',0.210
'0:02.942',0.210
'0:02.944',0.205
'0:02.946',0.160
'0:02.948',0.065
'0:02.950',0.025
'0:02.952',-0.005
'0:02.954',-0.025
'0:02.956',-0.025
'0:02.958',0.050
'0:02.960',0.080
'0:02.962',0.090
'0:02.964',0.065
'0:02.966',0.025
'0:02.968',-0.070
'0:02.970',-0.130
'0:02.972',-0.160
'0:02.974',-0.155
'0:02.976',-0.110
'0:02.978',-0.060
'0:02.980',-0.020
'0:02.982',-0.020
'0:02.984',-0.030
'0:02.986',-0.060
'0:02.988',-0.160
'0:02.990',-0.175
'0:02.992',-0.210
'0:02.994',-0.205
'0:02.996',-0.170
'0:02.998',-0.100
'0:03.000',-0.065
'0:03.002',-0.025
'0:03.004',-0.035
'0:03.006',-0.075
'0:03.008',-0.165
'0:03.010',-0.185
'0:03.012',-0.210
'0:03.014',-0.195
'0:03.016',-0.160
'0:03.018',-0.090
'0:03.020',-0.085
'0:03.022',-0.040
'0:03.024',-0.060
'0:03.026',-0.110
'0:03.028',-0.185
'0:03.030',-0.205
'0:03.032',-0.225
'0:03.034',-0.230
'0:03.036',-0.185
'0:03.038',-0.100
'0:03.040',-0.080
'0:03.042',-0.055
'0:03.044',-0.080
'0:03.046',-0.140
'0:03.048',-0.215
'0:03.050',-0.230
'0:03.052',-0.265
'0:03.054',-0.230
'0:03.056',-0.185
'0:03.058',-0.105
'0:03.060',-0.070
'0:03.062',-0.075
'0:03.064',-0.095
'0:03.066',-0.165
'0:03.068',-0.240
'0:03.070',-0.250
'0:03.072',-0.265
'0:03.074',-0.250
'0:03.076',-0.220
'0:03.078',-0.115
'0:03.080',-0.120
'0:03.082',-0.090
'0:03.084',-0.130
'0:03.086',-0.190
'0:03.088',-0.280
'0:03.090',-0.280
'0:03.092',-0.285
'0:03.094',-0.265
'0:03.096',-0.230
'0:03.098',-0.160
'0:03.100',-0.130
'0:03.102',-0.120
'0:03.104',-0.145
'0:03.106',-0.230
'0:03.108',-0.300
'0:03.110',-0.305
'0:03.112',-0.295
'0:03.114',-0.270
'0:03.116',-0.215
'0:03.118',-0.140
'0:03.120',-0.125
'0:03.122',-0.120
'0:03.124',-0.145
'0:03.126',-0.205
'0:03.128',-0.275
'0:03.130',-0.300
'0:03.132',-0.320
'0:03.134',-0.290
'0:03.136',-0.230
'0:03.138',-0.175
'0:03.140',-0.160
'0:03.142',-0.120
'0:03.144',-0.175
'0:03.146',-0.210
'0:03.148',-0.280
'0:03.150',-0.285
'0:03.152',-0.310
'0:03.154',-0.285
'0:03.156',-0.240
'0:03.158',-0.195
'0:03.160',-0.175
'0:03.162',-0.165
'0:03.164',-0.180
'0:03.166',-0.220
'0:03.168',-0.305
'0:03.170',-0.325
'0:03.172',-0.330
'0:03.174',-0.300
'0:03.176',-0.250
'0:03.178',-0.180
'0:03.180',-0.185
'0:03.182',-0.165
'0:03.184',-0.215
'0:03.186',-0.310
'0:03.188',-0.350
'0:03.190',-0.375
'0:03.192',-0.365
'0:03.194',-0.335
'0:03.196',-0.285
'0:03.198',-0.230
'0:03.200',-0.220
'0:03.202',-0.220
'0:03.204',-0.275
'0:03.206',-0.335
'0:03.208',-0.380
'0:03.210',-0.405
'0:03.212',-0.400
'0:03.214',-0.360
'0:03.216',-0.305
'0:03.218',-0.245
'0:03.220',-0.245
'0:03.222',-0.250
'0:03.224',-0.310
'0:03.226',-0.365
'0:03.228',-0.415
'0:03.230',-0.445
'0:03.232',-0.410
'0:03.234',-0.380
'0:03.236',-0.330
'0:03.238',-0.315
'0:03.240',-0.305
'0:03.242',-0.295
'0:03.244',-0.345
'0:03.246',-0.440
'0:03.248',-0.475
'0:03.250',-0.480
'0:03.252',-0.410
'0:03.254',-0.305
'0:03.256',-0.165
'0:03.258',-0.065
'0:03.260',0.045
'0:03.262',0.105
'0:03.264',0.140
'0:03.266',0.100
'0:03.268',0.020
'0:03.270',-0.100
'0:03.272',-0.235
'0:03.274',-0.225
'0:03.276',-0.170
'0:03.278',-0.230
'0:03.280',-0.270
'0:03.282',-0.490
'0:03.284',-0.645
'0:03.286',-0.710
'0:03.288',-0.700
'0:03.290',-0.700
'0:03.292',-0.695
'0:03.294',-0.650
'0:03.296',-0.575
'0:03.298',-0.555
'0:03.300',-0.500
'0:03.302',-0.495
'0:03.304',-0.475
'0:03.306',-0.520
'0:03.308',-0.535
'0:03.310',-0.535
'0:03.312',-0.490
'0:03.314',-0.435
'0:03.316',-0.340
'0:03.318',-0.310
'0:03.320',-0.315
'0:03.322',-0.310
'0:03.324',-0.355
'0:03.326',-0.415
'0:03.328',-0.435
'0:03.330',-0.465
'0:03.332',-0.435
'0:03.334',-0.380
'0:03.336',-0.315
'0:03.338',-0.290
'0:03.340',-0.270
'0:03.342',-0.300
'0:03.344',-0.355
'0:03.346',-0.415
'0:03.348',-0.440
'0:03.350',-0.470
'0:03.352',-0.435
'0:03.354',-0.365
'0:03.356',-0.320
'0:03.358',-0.300
'0:03.360',-0.250
'0:03.362',-0.290
'0:03.364',-0.350
'0:03.366',-0.395
'0:03.368',-0.400
'0:03.370',-0.445
'0:03.372',-0.400
'0:03.374',-0.390
'0:03.376',-0.265
'0:03.378',-0.265
'0:03.380',-0.255
'0:03.382',-0.275
'0:03.384',-0.310
'0:03.386',-0.385
'0:03.388',-0.415
'0:03.390',-0.405
'0:03.392',-0.405
'0:03.394',-0.360
'0:03.396',-0.265
'0:03.398',-0.245
'0:03.400',-0.225
'0:03.402',-0.255
'0:03.404',-0.295
'0:03.406',-0.350
'0:03.408',-0.370
'0:03.410',-0.375
'0:03.412',-0.330
'0:03.414',-0.280
'0:03.416',-0.180
'0:03.418',-0.170
'0:03.420',-0.165
'0:03.422',-0.180
'0:03.424',-0.220
'0:03.426',-0.280
'0:03.428',-0.305
'0:03.430',-0.290
'0:03.432',-0.245
'0:03.434',-0.205
'0:03.436',-0.135
'0:03.438',-0.075
'0:03.440',-0.105
'0:03.442',-0.130
'0:03.444',-0.200
'0:03.446',-0.250
'0:03.448',-0.290
'0:03.450',-0.310
'0:03.452',-0.275
'0:03.454',-0.195
'0:03.456',-0.150
'0:03.458',-0.135
'0:03.460',-0.140
'0:03.462',-0.180
'0:03.464',-0.240
'0:03.466',-0.310
'0:03.468',-0.365
'0:03.470',-0.355
'0:03.472',-0.310
'0:03.474',-0.270
'0:03.476',-0.235
'0:03.478',-0.240
'0:03.480',-0.240
'0:03.482',-0.315
'0:03.484',-0.395
'0:03.486',-0.455
'0:03.488',-0.480
'0:03.490',-0.490
'0:03.492',-0.470
'0:03.494',-0.400
'0:03.496',-0.365
'0:03.498',-0.365
'0:03.500',-0.370
'0:03.502',-0.415
'0:03.504',-0.490
'0:03.506',-0.545
'0:03.508',-0.560
'0:03.510',-0.570
'0:03.512',-0.535
'0:03.514',-0.465
'0:03.516',-0.430
'0:03.518',-0.400
'0:03.520',-0.420
'0:03.522',-0.455
'0:03.524',-0.530
'0:03.526',-0.565
'0:03.528',-0.555
'0:03.530',-0.550
'0:03.532',-0.530
'0:03.534',-0.475
'0:03.536',-0.455
'0:03.538',-0.415
'0:03.540',-0.420
'0:03.542',-0.470
'0:03.544',-0.530
'0:03.546',-0.585
'0:03.548',-0.595
'0:03.550',-0.590
'0:03.552',-0.520
'0:03.554',-0.465
'0:03.556',-0.440
'0:03.558',-0.425
'0:03.560',-0.415
'0:03.562',-0.470
'0:03.564',-0.520
'0:03.566',-0.560
'0:03.568',-0.585
'0:03.570',-0.590
'0:03.572',-0.540
'0:03.574',-0.445
'0:03.576',-0.450
'0:03.578',-0.435
'0:03.580',-0.460
'0:03.582',-0.495
'0:03.584',-0.535
'0:03.586',-0.580
'0:03.588',-0.620
'0:03.590',-0.605
'0:03.592',-0.550
'0:03.594',-0.490
'0:03.596',-0.460
'0:03.598',-0.430
'0:03.600',-0.440
'0:03.602',-0.500
'0:03.604',-0.590
'0:03.606',-0.615
'0:03.608',-0.610
'0:03.610',-0.600
'0:03.612',-0.550
'0:03.614',-0.505
'0:03.616',-0.490
'0:03.618',-0.475
'0:03.620',-0.500
'0:03.622',-0.550
'0:03.624',-0.610
'0:03.626',-0.630
'0:03.628',-0.650
'0:03.630',-0.620
'0:03.632',-0.595
'0:03.634',-0.520
'0:03.636',-0.480
'0:03.638',-0.480
'0:03.640',-0.485
'0:03.642',-0.545
'0:03.644',-0.615
'0:03.646',-0.625
'0:03.648',-0.660
'0:03.650',-0.645
'0:03.652',-0.590
'0:03.654',-0.500
'0:03.656',-0.470
'0:03.658',-0.480
'0:03.660',-0.500
'0:03.662',-0.535
'0:03.664',-0.610
'0:03.666',-0.630
'0:03.668',-0.645
'0:03.670',-0.600
'0:03.672',-0.575
'0:03.674',-0.510
'0:03.676',-0.480
'0:03.678',-0.465
'0:03.680',-0.485
'0:03.682',-0.555
'0:03.684',-0.630
'0:03.686',-0.645
'0:03.688',-0.670
'0:03.690',-0.625
'0:03.692',-0.540
'0:03.694',-0.495
'0:03.696',-0.475
'0:03.698',-0.465
'0:03.700',-0.520
'0:03.702',-0.590
'0:03.704',-0.650
'0:03.706',-0.685
'0:03.708',-0.680
'0:03.710',-0.650
'0:03.712',-0.595
'0:03.714',-0.545
'0:03.716',-0.540
'0:03.718',-0.535
'0:03.720',-0.550
'0:03.722',-0.645
'0:03.724',-0.695
'0:03.726',-0.720
'0:03.728',-0.720
'0:03.730',-0.715
'0:03.732',-0.665
'0:03.734',-0.565
'0:03.736',-0.565
'0:03.738',-0.560
'0:03.740',-0.585
'0:03.742',-0.650
'0:03.744',-0.710
'0:03.746',-0.735
'0:03.748',-0.740
'0:03.750',-0.720
'0:03.752',-0.660
'0:03.754',-0.615
'0:03.756',-0.610
'0:03.758',-0.595
'0:03.760',-0.645
'0:03.762',-0.710
'0:03.764',-0.780
'0:03.766',-0.770
'0:03.768',-0.720
'0:03.770',-0.615
'0:03.772',-0.480
'0:03.774',-0.360
'0:03.776',-0.285
'0:03.778',-0.185
'0:03.780',-0.145
'0:03.782',-0.185
'0:03.784',-0.265
'0:03.786',-0.380
'0:03.788',-0.495
'0:03.790',-0.495
'0:03.792',-0.455
'0:03.794',-0.500
'0:03.796',-0.580
'0:03.798',-0.735
'0:03.800',-0.915
'0:03.802',-0.960
'0:03.804',-0.990
'0:03.806',-1.010
'0:03.808',-0.985
'0:03.810',-0.950
'0:03.812',-0.850
'0:03.814',-0.815
'0:03.816',-0.780
'0:03.818',-0.735
'0:03.820',-0.745
'0:03.822',-0.790
'0:03.824',-0.815
'0:03.826',-0.820
'0:03.828',-0.780
'0:03.830',-0.735
'0:03.832',-0.655
'0:03.834',-0.615
'0:03.836',-0.585
'0:03.838',-0.580
'0:03.840',-0.660
'0:03.842',-0.715
'0:03.844',-0.750
'0:03.846',-0.740
'0:03.848',-0.750
'0:03.850',-0.685
'0:03.852',-0.620
'0:03.854',-0.580
'0:03.856',-0.555
'0:03.858',-0.565
'0:03.860',-0.625
'0:03.862',-0.710
'0:03.864',-0.730
'0:03.866',-0.745
'0:03.868',-0.750
'0:03.870',-0.680
'0:03.872',-0.610
'0:03.874',-0.610
'0:03.876',-0.580
'0:03.878',-0.575
'0:03.880',-0.615
'0:03.882',-0.685
'0:03.884',-0.730
'0:03.886',-0.755
'0:03.888',-0.730
'0:03.890',-0.660
'0:03.892',-0.585
'0:03.894',-0.570
'0:03.896',-0.545
'0:03.898',-0.570
'0:03.900',-0.615
'0:03.902',-0.680
'0:03.904',-0.705
'0:03.906',-0.720
'0:03.908',-0.695
'0:03.910',-0.630
'0:03.912',-0.540
'0:03.914',-0.520
'0:03.916',-0.500
'0:03.918',-0.520
'0:03.920',-0.575
'0:03.922',-0.640
'0:03.924',-0.660
'0:03.926',-0.660
'0:03.928',-0.640
'0:03.930',-0.565
'0:03.932',-0.490
'0:03.934',-0.465
'0:03.936',-0.405
'0:03.938',-0.465
'0:03.940',-0.510
'0:03.942',-0.565
'0:03.944',-0.575
'0:03.946',-0.600
'0:03.948',-0.565
'0:03.950',-0.500
'0:03.952',-0.415
'0:03.954',-0.385
'0:03.956',-0.370
'0:03.958',-0.400
'0:03.960',-0.445
'0:03.962',-0.530
'0:03.964',-0.535
'0:03.966',-0.585
'0:03.968',-0.565
'0:03.970',-0.495
'0:03.972',-0.420
'0:03.974',-0.410
'0:03.976',-0.405
'0:03.978',-0.445
'0:03.980',-0.515
'0:03.982',-0.595
'0:03.984',-0.615
'0:03.986',-0.635
'0:03.988',-0.610
'0:03.990',-0.580
'0:03.992',-0.520
'0:03.994',-0.515
'0:03.996',-0.525
'0:03.998',-0.570
'0:04.000',-0.640
'0:04.002',-0.745
'0:04.004',-0.760
'0:04.006',-0.780
'0:04.008',-0.755
'0:04.010',-0.710
'0:04.012',-0.635
'0:04.014',-0.625
'0:04.016',-0.635
'0:04.018',-0.700
'0:04.020',-0.770
'0:04.022',-0.825
'0:04.024',-0.855
'0:04.026',-0.855
'0:04.028',-0.830
'0:04.030',-0.760
'0:04.032',-0.730
'0:04.034',-0.710
'0:04.036',-0.685
'0:04.038',-0.710
'0:04.040',-0.785
'0:04.042',-0.840
'0:04.044',-0.885
'0:04.046',-0.875
'0:04.048',-0.840
'0:04.050',-0.750
'0:04.052',-0.705
'0:04.054',-0.710
'0:04.056',-0.695
'0:04.058',-0.730
'0:04.060',-0.795
'0:04.062',-0.830
'0:04.064',-0.845
'0:04.066',-0.880
'0:04.068',-0.830
'0:04.070',-0.750
'0:04.072',-0.700
'0:04.074',-0.685
'0:04.076',-0.705
'0:04.078',-0.725
'0:04.080',-0.795
'0:04.082',-0.835
'0:04.084',-0.850
'0:04.086',-0.860
'0:04.088',-0.830
'0:04.090',-0.735
'0:04.092',-0.705
'0:04.094',-0.690
'0:04.096',-0.695
'0:04.098',-0.740
'0:04.100',-0.820
'0:04.102',-0.830
'0:04.104',-0.845
'0:04.106',-0.845
'0:04.108',-0.810
'0:04.110',-0.745
'0:04.112',-0.725
'0:04.114',-0.695
'0:04.116',-0.695
'0:04.118',-0.720
'0:04.120',-0.805
'0:04.122',-0.865
'0:04.124',-0.875
'0:04.126',-0.870
'0:04.128',-0.845
'0:04.130',-0.750
'0:04.132',-0.725
'0:04.134',-0.710
'0:04.136',-0.710
'0:04.138',-0.760
'0:04.140',-0.840
'0:04.142',-0.865
'0:04.144',-0.890
'0:04.146',-0.900
'0:04.148',-0.830
'0:04.150',-0.725
'0:04.152',-0.700
'0:04.154',-0.720
'0:04.156',-0.715
'0:04.158',-0.800
'0:04.160',-0.850
'0:04.162',-0.875
'0:04.164',-0.890
'0:04.166',-0.880
'0:04.168',-0.825
'0:04.170',-0.765
'0:04.172',-0.735
'0:04.174',-0.720
'0:04.176',-0.730
'0:04.178',-0.775
'0:04.180',-0.840
'0:04.182',-0.855
'0:04.184',-0.875
'0:04.186',-0.865
'0:04.188',-0.830
'0:04.190',-0.750
'0:04.192',-0.735
'0:04.194',-0.715
'0:04.196',-0.735
'0:04.198',-0.780
'0:04.200',-0.845
'0:04.202',-0.885
'0:04.204',-0.895
'0:04.206',-0.890
'0:04.208',-0.810
'0:04.210',-0.725
'0:04.212',-0.720
'0:04.214',-0.710
'0:04.216',-0.720
'0:04.218',-0.805
'0:04.220',-0.875
'0:04.222',-0.885
'0:04.224',-0.910
'0:04.226',-0.875
'0:04.228',-0.840
'0:04.230',-0.775
'0:04.232',-0.775
'0:04.234',-0.750
'0:04.236',-0.785
'0:04.238',-0.860
'0:04.240',-0.920
'0:04.242',-0.925
'0:04.244',-0.950
'0:04.246',-0.935
'0:04.248',-0.860
'0:04.250',-0.775
'0:04.252',-0.790
'0:04.254',-0.765
'0:04.256',-0.785
'0:04.258',-0.870
'0:04.260',-0.935
'0:04.262',-0.940
'0:04.264',-0.955
'0:04.266',-0.940
'0:04.268',-0.880
'0:04.270',-0.835
'0:04.272',-0.840
'0:04.274',-0.810
'0:04.276',-0.870
'0:04.278',-0.950
'0:04.280',-0.980
'0:04.282',-1.010
'0:04.284',-0.965
'0:04.286',-0.865
'0:04.288',-0.720
'0:04.290',-0.600
'0:04.292',-0.490
'0:04.294',-0.400
'0:04.296',-0.350
'0:04.298',-0.345
'0:04.300',-0.405
'0:04.302',-0.530
'0:04.304',-0.675
'0:04.306',-0.740
'0:04.308',-0.705
'0:04.310',-0.730
'0:04.312',-0.805
'0:04.314',-0.930
'0:04.316',-1.105
'0:04.318',-1.195
'0:04.320',-1.215
'0:04.322',-1.240
'0:04.324',-1.210
'0:04.326',-1.155
'0:04.328',-1.090
'0:04.330',-1.040
'0:04.332',-0.990
'0:04.334',-0.945
'0:04.336',-0.960
'0:04.338',-0.985
'0:04.340',-1.010
'0:04.342',-1.025
'0:04.344',-0.985
'0:04.346',-0.955
'0:04.348',-0.880
'0:04.350',-0.825
'0:04.352',-0.815
'0:04.354',-0.790
'0:04.356',-0.850
'0:04.358',-0.920
'0:04.360',-0.945
'0:04.362',-0.970
'0:04.364',-0.960
'0:04.366',-0.910
'0:04.368',-0.840
'0:04.370',-0.820
'0:04.372',-0.795
'0:04.374',-0.795
'0:04.376',-0.845
'0:04.378',-0.885
'0:04.380',-0.930
'0:04.382',-0.930
'0:04.384',-0.940
'0:04.386',-0.895
'0:04.388',-0.820
'0:04.390',-0.785
'0:04.392',-0.765
'0:04.394',-0.775
'0:04.396',-0.795
'0:04.398',-0.875
'0:04.400',-0.905
'0:04.402',-0.925
'0:04.404',-0.930
'0:04.406',-0.885
'0:04.408',-0.810
'0:04.410',-0.780
'0:04.412',-0.745
'0:04.414',-0.745
'0:04.416',-0.795
'0:04.418',-0.855
'0:04.420',-0.865
'0:04.422',-0.900
'0:04.424',-0.890
'0:04.426',-0.830
'0:04.428',-0.760
'0:04.430',-0.730
'0:04.432',-0.685
'0:04.434',-0.710
'0:04.436',-0.760
'0:04.438',-0.820
'0:04.440',-0.825
'0:04.442',-0.825
'0:04.444',-0.820
'0:04.446',-0.765
'0:04.448',-0.670
'0:04.450',-0.650
'0:04.452',-0.610
'0:04.454',-0.625
'0:04.456',-0.675
'0:04.458',-0.745
'0:04.460',-0.760
'0:04.462',-0.740
'0:04.464',-0.735
'0:04.466',-0.675
'0:04.468',-0.585
'0:04.470',-0.555
'0:04.472',-0.535
'0:04.474',-0.570
'0:04.476',-0.605
'0:04.478',-0.680
'0:04.480',-0.705
'0:04.482',-0.715
'0:04.484',-0.700
'0:04.486',-0.640
'0:04.488',-0.575
'0:04.490',-0.555
'0:04.492',-0.545
'0:04.494',-0.595
'0:04.496',-0.650
'0:04.498',-0.740
'0:04.500',-0.750
'0:04.502',-0.790
'0:04.504',-0.770
'0:04.506',-0.725
'0:04.508',-0.670
'0:04.510',-0.660
'0:04.512',-0.660
'0:04.514',-0.705
'0:04.516',-0.775
'0:04.518',-0.850
'0:04.520',-0.890
'0:04.522',-0.910
'0:04.524',-0.895
'0:04.526',-0.860
'0:04.528',-0.805
'0:04.530',-0.790
'0:04.532',-0.770
'0:04.534',-0.805
'0:04.536',-0.890
'0:04.538',-0.940
'0:04.540',-0.980
'0:04.542',-0.995
'0:04.544',-0.970
'0:04.546',-0.905
'0:04.548',-0.860
'0:04.550',-0.835
'0:04.552',-0.840
'0:04.554',-0.860
'0:04.556',-0.925
'0:04.558',-0.990
'0:04.560',-1.005
'0:04.562',-1.015
'0:04.564',-0.980
'0:04.566',-0.920
'0:04.568',-0.865
'0:04.570',-0.860
'0:04.572',-0.850
'0:04.574',-0.865
'0:04.576',-0.920
'0:04.578',-0.995
'0:04.580',-0.995
'0:04.582',-1.025
'0:04.584',-0.980
'0:04.586',-0.905
'0:04.588',-0.855
'0:04.590',-0.830
'0:04.592',-0.825
'0:04.594',-0.860
'0:04.596',-0.930
'0:04.598',-0.970
'0:04.600',-1.000
'0:04.602',-1.000
'0:04.604',-0.950
'0:04.606',-0.890
'0:04.608',-0.845
'0:04.610',-0.830
'0:04.612',-0.830
'0:04.614',-0.870
'0:04.616',-0.945
'0:04.618',-0.980
'0:04.620',-1.025
'0:04.622',-1.020
'0:04.624',-0.970
'0:04.626',-0.895
'0:04.628',-0.865
'0:04.630',-0.845
'0:04.632',-0.845
'0:04.634',-0.895
'0:04.636',-0.975
'0:04.638',-1.010
'0:04.640',-1.030
'0:04.642',-1.030
'0:04.644',-1.000
'0:04.646',-0.925
'0:04.648',-0.885
'0:04.650',-0.870
'0:04.652',-0.870
'0:04.654',-0.940
'0:04.656',-0.990
'0:04.658',-1.025
'0:04.660',-1.035
'0:04.662',-1.015
'0:04.664',-0.995
'0:04.666',-0.915
'0:04.668',-0.895
'0:04.670',-0.845
'0:04.672',-0.870
'0:04.674',-0.930
'0:04.676',-1.005
'0:04.678',-1.025
'0:04.680',-1.030
'0:04.682',-1.015
'0:04.684',-0.975
'0:04.686',-0.905
'0:04.688',-0.885
'0:04.690',-0.850
'0:04.692',-0.865
'0:04.694',-0.920
'0:04.696',-1.000
'0:04.698',-1.040
'0:04.700',-1.045
'0:04.702',-1.030
'0:04.704',-0.975
'0:04.706',-0.920
'0:04.708',-0.905
'0:04.710',-0.875
'0:04.712',-0.890
'0:04.714',-0.925
'0:04.716',-0.985
'0:04.718',-1.015
'0:04.720',-1.045
'0:04.722',-1.015
'0:04.724',-0.975
'0:04.726',-0.900
'0:04.728',-0.885
'0:04.730',-0.860
'0:04.732',-0.885
'0:04.734',-0.945
'0:04.736',-1.020
'0:04.738',-1.030
'0:04.740',-1.080
'0:04.742',-1.050
'0:04.744',-0.995
'0:04.746',-0.905
'0:04.748',-0.920
'0:04.750',-0.915
'0:04.752',-0.935
'0:04.754',-0.970
'0:04.756',-1.060
'0:04.758',-1.075
'0:04.760',-1.100
'0:04.762',-1.070
'0:04.764',-1.020
'0:04.766',-0.945
'0:04.768',-0.920
'0:04.770',-0.925
'0:04.772',-0.950
'0:04.774',-1.005
'0:04.776',-1.060
'0:04.778',-1.060
'0:04.780',-1.070
'0:04.782',-1.085
'0:04.784',-1.035
'0:04.786',-0.995
'0:04.788',-0.945
'0:04.790',-0.950
'0:04.792',-0.985
'0:04.794',-1.055
'0:04.796',-1.110
'0:04.798',-1.125
'0:04.800',-1.120
'0:04.802',-1.025
'0:04.804',-0.915
'0:04.806',-0.755
'0:04.808',-0.660
'0:04.810',-0.550
'0:04.812',-0.515
'0:04.814',-0.465
'0:04.816',-0.520
'0:04.818',-0.580
'0:04.820',-0.695
'0:04.822',-0.840
'0:04.824',-0.870
'0:04.826',-0.850
'0:04.828',-0.915
'0:04.830',-1.015
'0:04.832',-1.185
'0:04.834',-1.360
'0:04.836',-1.430
'0:04.838',-1.420
'0:04.840',-1.390
'0:04.842',-1.330
'0:04.844',-1.255
'0:04.846',-1.165
'0:04.848',-1.135
'0:04.850',-1.100
'0:04.852',-1.105
'0:04.854',-1.150
'0:04.856',-1.170
'0:04.858',-1.155
'0:04.860',-1.160
'0:04.862',-1.105
'0:04.864',-1.005
'0:04.866',-0.965
'0:04.868',-0.935
'0:04.870',-0.925
'0:04.872',-0.955
'0:04.874',-1.010
'0:04.876',-1.055
'0:04.878',-1.075
'0:04.880',-1.075
'0:04.882',-1.035
'0:04.884',-0.970
'0:04.886',-0.925
'0:04.888',-0.905
'0:04.890',-0.900
'0:04.892',-0.950
'0:04.894',-1.005
'0:04.896',-1.040
'0:04.898',-1.060
'0:04.900',-1.055
'0:04.902',-1.020
'0:04.904',-0.960
'0:04.906',-0.910
'0:04.908',-0.875
'0:04.910',-0.875
'0:04.912',-0.925
'0:04.914',-0.985
'0:04.916',-1.030
'0:04.918',-1.045
'0:04.920',-1.035
'0:04.922',-0.995
'0:04.924',-0.925
'0:04.926',-0.900
'0:04.928',-0.865
'0:04.930',-0.870
'0:04.932',-0.920
'0:04.934',-0.955
'0:04.936',-0.990
'0:04.938',-0.985
'0:04.940',-1.010
'0:04.942',-0.935
'0:04.944',-0.875
'0:04.946',-0.850
'0:04.948',-0.805
'0:04.950',-0.815
'0:04.952',-0.845
'0:04.954',-0.915
'0:04.956',-0.940
'0:04.958',-0.950
'0:04.960',-0.935
'0:04.962',-0.875
'0:04.964',-0.790
'0:04.966',-0.740
'0:04.968',-0.725
'0:04.970',-0.720
'0:04.972',-0.775
'0:04.974',-0.810
'0:04.976',-0.840
'0:04.978',-0.850
'0:04.980',-0.825
'0:04.982',-0.770
'0:04.984',-0.685
'0:04.986',-0.650
'0:04.988',-0.625
'0:04.990',-0.640
'0:04.992',-0.680
'0:04.994',-0.755
'0:04.996',-0.785
'0:04.998',-0.800
'0:05.000',-0.790
'0:05.002',-0.750
'0:05.004',-0.660
'0:05.006',-0.660
'0:05.008',-0.650
'0:05.010',-0.650
'0:05.012',-0.715
'0:05.014',-0.815
'0:05.016',-0.845
'0:05.018',-0.855
'0:05.020',-0.855
'0:05.022',-0.825
'0:05.024',-0.775
'0:05.026',-0.755
'0:05.028',-0.730
'0:05.030',-0.760
'0:05.032',-0.865
'0:05.034',-0.940
'0:05.036',-0.965
'0:05.038',-1.000
'0:05.040',-0.995
'0:05.042',-0.960
'0:05.044',-0.890
'0:05.046',-0.880
'0:05.048',-0.870
'0:05.050',-0.895
'0:05.052',-0.980
'0:05.054',-1.055
'0:05.056',-1.075
'0:05.058',-1.110
'0:05.060',-1.080
'0:05.062',-1.030
'0:05.064',-0.965
'0:05.066',-0.950
'0:05.068',-0.925
'0:05.070',-0.960
'0:05.072',-1.020
'0:05.074',-1.095
'0:05.076',-1.105
'0:05.078',-1.125
'0:05.080',-1.105
'0:05.082',-1.040
'0:05.084',-0.990
'0:05.086',-0.955
'0:05.088',-0.945
'0:05.090',-0.980
'0:05.092',-1.045
'0:05.094',-1.070
'0:05.096',-1.110
'0:05.098',-1.115
'0:05.100',-1.100
'0:05.102',-1.020
'0:05.104',-0.975
'0:05.106',-0.955
'0:05.108',-0.940
'0:05.110',-0.960
'0:05.112',-1.030
'0:05.114',-1.090
'0:05.116',-1.085
'0:05.118',-1.105
'0:05.120',-1.075
'0:05.122',-1.015
'0:05.124',-0.965
'0:05.126',-0.940
'0:05.128',-0.920
'0:05.130',-0.955
'0:05.132',-1.020
'0:05.134',-1.080
'0:05.136',-1.095
'0:05.138',-1.095
'0:05.140',-1.075
'0:05.142',-1.015
'0:05.144',-0.965
'0:05.146',-0.950
'0:05.148',-0.935
'0:05.150',-0.955
'0:05.152',-1.045
'0:05.154',-1.100
'0:05.156',-1.125
'0:05.158',-1.120
'0:05.160',-1.085
'0:05.162',-1.040
'0:05.164',-0.975
'0:05.166',-0.970
'0:05.168',-0.970
'0:05.170',-0.985
'0:05.172',-1.065
'0:05.174',-1.115
'0:05.176',-1.145
'0:05.178',-1.125
'0:05.180',-1.075
'0:05.182',-1.020
'0:05.184',-0.980
'0:05.186',-0.960
'0:05.188',-0.970
'0:05.190',-0.980
'0:05.192',-1.035
'0:05.194',-1.085
'0:05.196',-1.125
'0:05.198',-1.110
'0:05.200',-1.075
'0:05.202',-1.010
'0:05.204',-0.970
'0:05.206',-0.950
'0:05.208',-0.960
'0:05.210',-1.005
'0:05.212',-1.055
'0:05.214',-1.100
'0:05.216',-1.110
'0:05.218',-1.110
'0:05.220',-1.045
'0:05.222',-0.975
'0:05.224',-0.960
'0:05.226',-0.925
'0:05.228',-0.935
'0:05.230',-0.985
'0:05.232',-1.055
'0:05.234',-1.110
'0:05.236',-1.125
'0:05.238',-1.105
'0:05.240',-1.045
'0:05.242',-0.980
'0:05.244',-0.940
'0:05.246',-0.915
'0:05.248',-0.935
'0:05.250',-0.970
'0:05.252',-1.035
'0:05.254',-1.075
'0:05.256',-1.105
'0:05.258',-1.100
'0:05.260',-1.055
'0:05.262',-1.005
'0:05.264',-0.970
'0:05.266',-0.945
'0:05.268',-0.960
'0:05.270',-1.010
'0:05.272',-1.100
'0:05.274',-1.130
'0:05.276',-1.165
'0:05.278',-1.145
'0:05.280',-1.100
'0:05.282',-1.005
'0:05.284',-0.995
'0:05.286',-0.980
'0:05.288',-0.995
'0:05.290',-1.055
'0:05.292',-1.130
'0:05.294',-1.140
'0:05.296',-1.150
'0:05.298',-1.155
'0:05.300',-1.105
'0:05.302',-1.030
'0:05.304',-1.005
'0:05.306',-0.995
'0:05.308',-1.010
'0:05.310',-1.060
'0:05.312',-1.145
'0:05.314',-1.185
'0:05.316',-1.230
'0:05.318',-1.195
'0:05.320',-1.165
'0:05.322',-1.085
'0:05.324',-1.050
'0:05.326',-0.985
'0:05.328',-0.930
'0:05.330',-0.885
'0:05.332',-0.895
'0:05.334',-0.825
'0:05.336',-0.755
'0:05.338',-0.640
'0:05.340',-0.545
'0:05.342',-0.465
'0:05.344',-0.530
'0:05.346',-0.655
'0:05.348',-0.825
'0:05.350',-0.930
'0:05.352',-1.070
'0:05.354',-1.185
'0:05.356',-1.335
'0:05.358',-1.445
'0:05.360',-1.450
'0:05.362',-1.350
'0:05.364',-1.325
'0:05.366',-1.265
'0:05.368',-1.255
'0:05.370',-1.285
'0:05.372',-1.335
'0:05.374',-1.325
'0:05.376',-1.315
'0:05.378',-1.260
'0:05.380',-1.160
'0:05.382',-1.090
'0:05.384',-1.040
'0:05.386',-1.005
'0:05.388',-1.030
'0:05.390',-1.075
'0:05.392',-1.125
'0:05.394',-1.130
'0:05.396',-1.155
'0:05.398',-1.110
'0:05.400',-1.060
'0:05.402',-1.000
'0:05.404',-0.970
'0:05.406',-0.970
'0:05.408',-0.990
'0:05.410',-1.045
'0:05.412',-1.110
'0:05.414',-1.130
'0:05.416',-1.135
'0:05.418',-1.100
'0:05.420',-1.035
'0:05.422',-0.965
'0:05.424',-0.940
'0:05.426',-0.935
'0:05.428',-0.975
'0:05.430',-1.025
'0:05.432',-1.085
'0:05.434',-1.095
'0:05.436',-1.105
'0:05.438',-1.075
'0:05.440',-0.985
'0:05.442',-0.940
'0:05.444',-0.920
'0:05.446',-0.910
'0:05.448',-0.955
'0:05.450',-1.025
'0:05.452',-1.050
'0:05.454',-1.070
'0:05.456',-1.060
'0:05.458',-1.030
'0:05.460',-0.950
'0:05.462',-0.905
'0:05.464',-0.890
'0:05.466',-0.880
'0:05.468',-0.910
'0:05.470',-0.970
'0:05.472',-1.015
'0:05.474',-1.030
'0:05.476',-1.005
'0:05.478',-0.975
'0:05.480',-0.890
'0:05.482',-0.855
'0:05.484',-0.820
'0:05.486',-0.805
'0:05.488',-0.845
'0:05.490',-0.925
'0:05.492',-0.945
'0:05.494',-0.930
'0:05.496',-0.915
'0:05.498',-0.880
'0:05.500',-0.790
'0:05.502',-0.735
'0:05.504',-0.720
'0:05.506',-0.710
'0:05.508',-0.745
'0:05.510',-0.825
'0:05.512',-0.840
'0:05.514',-0.865
'0:05.516',-0.850
'0:05.518',-0.805
'0:05.520',-0.730
'0:05.522',-0.695
'0:05.524',-0.670
'0:05.526',-0.690
'0:05.528',-0.735
'0:05.530',-0.805
'0:05.532',-0.855
'0:05.534',-0.875
'0:05.536',-0.875
'0:05.538',-0.830
'0:05.540',-0.760
'0:05.542',-0.750
'0:05.544',-0.720
'0:05.546',-0.740
'0:05.548',-0.815
'0:05.550',-0.900
'0:05.552',-0.950
'0:05.554',-0.980
'0:05.556',-1.000
'0:05.558',-0.950
'0:05.560',-0.845
'0:05.562',-0.840
'0:05.564',-0.850
'0:05.566',-0.890
'0:05.568',-0.960
'0:05.570',-1.025
'0:05.572',-1.075
'0:05.574',-1.090
'0:05.576',-1.080
'0:05.578',-1.045
'0:05.580',-0.970
'0:05.582',-0.945
'0:05.584',-0.930
'0:05.586',-0.950
'0:05.588',-1.020
'0:05.590',-1.085
'0:05.592',-1.105
'0:05.594',-1.140
'0:05.596',-1.130
'0:05.598',-1.070
'0:05.600',-0.975
'0:05.602',-0.985
'0:05.604',-0.965
'0:05.606',-0.960
'0:05.608',-1.030
'0:05.610',-1.110
'0:05.612',-1.135
'0:05.614',-1.160
'0:05.616',-1.120
'0:05.618',-1.050
'0:05.620',-0.985
'0:05.622',-0.955
'0:05.624',-0.955
'0:05.626',-0.975
'0:05.628',-1.030
'0:05.630',-1.095
'0:05.632',-1.100
'0:05.634',-1.105
'0:05.636',-1.100
'0:05.638',-1.050
'0:05.640',-0.980
'0:05.642',-0.960
'0:05.644',-0.940
'0:05.646',-0.985
'0:05.648',-1.035
'0:05.650',-1.080
'0:05.652',-1.100
'0:05.654',-1.115
'0:05.656',-1.090
'0:05.658',-1.035
'0:05.660',-0.955
'0:05.662',-0.945
'0:05.664',-0.950
'0:05.666',-0.960
'0:05.668',-1.020
'0:05.670',-1.100
'0:05.672',-1.120
'0:05.674',-1.125
'0:05.676',-1.080
'0:05.678',-1.020
'0:05.680',-0.960
'0:05.682',-0.945
'0:05.684',-0.930
'0:05.686',-0.975
'0:05.688',-1.030
'0:05.690',-1.090
'0:05.692',-1.100
'0:05.694',-1.125
'0:05.696',-1.085
'0:05.698',-1.030
'0:05.700',-0.965
'0:05.702',-0.960
'0:05.704',-0.950
'0:05.706',-0.985
'0:05.708',-1.045
'0:05.710',-1.085
'0:05.712',-1.120
'0:05.714',-1.125
'0:05.716',-1.080
'0:05.718',-1.010
'0:05.720',-0.955
'0:05.722',-0.950
'0:05.724',-0.945
'0:05.726',-0.975
'0:05.728',-1.035
'0:05.730',-1.090
'0:05.732',-1.110
'0:05.734',-1.120
'0:05.736',-1.080
'0:05.738',-1.000
'0:05.740',-0.975
'0:05.742',-0.965
'0:05.744',-0.925
'0:05.746',-0.960
'0:05.748',-1.015
'0:05.750',-1.065
'0:05.752',-1.100
'0:05.754',-1.100
'0:05.756',-1.045
'0:05.758',-0.980
'0:05.760',-0.925
'0:05.762',-0.915
'0:05.764',-0.925
'0:05.766',-0.970
'0:05.768',-1.035
'0:05.770',-1.080
'0:05.772',-1.085
'0:05.774',-1.085
'0:05.776',-1.030
'0:05.778',-0.950
'0:05.780',-0.915
'0:05.782',-0.905
'0:05.784',-0.885
'0:05.786',-0.960
'0:05.788',-1.040
'0:05.790',-1.065
'0:05.792',-1.090
'0:05.794',-1.075
'0:05.796',-1.035
'0:05.798',-0.965
'0:05.800',-0.950
'0:05.802',-0.930
'0:05.804',-0.945
'0:05.806',-0.995
'0:05.808',-1.045
'0:05.810',-1.115
'0:05.812',-1.130
'0:05.814',-1.100
'0:05.816',-1.060
'0:05.818',-0.990
'0:05.820',-0.970
'0:05.822',-0.940
'0:05.824',-0.950
'0:05.826',-1.005
'0:05.828',-1.075
'0:05.830',-1.115
'0:05.832',-1.135
'0:05.834',-1.120
'0:05.836',-1.060
'0:05.838',-0.965
'0:05.840',-0.960
'0:05.842',-0.930
'0:05.844',-0.975
'0:05.846',-1.055
'0:05.848',-1.130
'0:05.850',-1.150
'0:05.852',-1.180
'0:05.854',-1.150
'0:05.856',-1.105
'0:05.858',-0.985
'0:05.860',-0.920
'0:05.862',-0.820
'0:05.864',-0.755
'0:05.866',-0.735
'0:05.868',-0.730
'0:05.870',-0.660
'0:05.872',-0.610
'0:05.874',-0.565
'0:05.876',-0.555
'0:05.878',-0.590
'0:05.880',-0.720
'0:05.882',-0.740
'0:05.884',-0.805
'0:05.886',-0.950
'0:05.888',-1.130
'0:05.890',-1.295
'0:05.892',-1.380
'0:05.894',-1.370
'0:05.896',-1.305
'0:05.898',-1.205
'0:05.900',-1.170
'0:05.902',-1.150
'0:05.904',-1.165
'0:05.906',-1.205
'0:05.908',-1.255
'0:05.910',-1.230
'0:05.912',-1.195
'0:05.914',-1.150
'0:05.916',-1.070
'0:05.918',-0.995
'0:05.920',-0.945
'0:05.922',-0.915
'0:05.924',-0.935
'0:05.926',-0.990
'0:05.928',-1.045
'0:05.930',-1.060
'0:05.932',-1.060
'0:05.934',-1.050
'0:05.936',-0.990
'0:05.938',-0.915
'0:05.940',-0.900
'0:05.942',-0.890
'0:05.944',-0.915
'0:05.946',-0.965
'0:05.948',-1.020
'0:05.950',-1.035
'0:05.952',-1.050
'0:05.954',-1.025
'0:05.956',-0.950
'0:05.958',-0.895
'0:05.960',-0.870
'0:05.962',-0.850
'0:05.964',-0.865
'0:05.966',-0.945
'0:05.968',-1.000
'0:05.970',-0.990
'0:05.972',-1.000
'0:05.974',-0.975
'0:05.976',-0.895
'0:05.978',-0.845
'0:05.980',-0.820
'0:05.982',-0.825
'0:05.984',-0.855
'0:05.986',-0.900
'0:05.988',-0.950
'0:05.990',-0.985
'0:05.992',-0.980
'0:05.994',-0.925
'0:05.996',-0.845
'0:05.998',-0.795
'0:06.000',-0.770
'0:06.002',-0.775
'0:06.004',-0.805
'0:06.006',-0.875
'0:06.008',-0.910
'0:06.010',-0.905
'0:06.012',-0.910
'0:06.014',-0.855
'0:06.016',-0.785
'0:06.018',-0.755
'0:06.020',-0.680
'0:06.022',-0.680
'0:06.024',-0.720
'0:06.026',-0.790
'0:06.028',-0.820
'0:06.030',-0.810
'0:06.032',-0.800
'0:06.034',-0.755
'0:06.036',-0.690
'0:06.038',-0.645
'0:06.040',-0.600
'0:06.042',-0.610
'0:06.044',-0.640
'0:06.046',-0.705
'0:06.048',-0.730
'0:06.050',-0.755
'0:06.052',-0.745
'0:06.054',-0.700
'0:06.056',-0.630
'0:06.058',-0.590
'0:06.060',-0.575
'0:06.062',-0.590
'0:06.064',-0.640
'0:06.066',-0.710
'0:06.068',-0.755
'0:06.070',-0.780
'0:06.072',-0.775
'0:06.074',-0.750
'0:06.076',-0.680
'0:06.078',-0.645
'0:06.080',-0.655
'0:06.082',-0.680
'0:06.084',-0.715
'0:06.086',-0.815
'0:06.088',-0.875
'0:06.090',-0.890
'0:06.092',-0.885
'0:06.094',-0.850
'0:06.096',-0.780
'0:06.098',-0.765
'0:06.100',-0.725
'0:06.102',-0.765
'0:06.104',-0.815
'0:06.106',-0.895
'0:06.108',-0.940
'0:06.110',-0.965
'0:06.112',-0.950
'0:06.114',-0.920
'0:06.116',-0.845
'0:06.118',-0.820
'0:06.120',-0.785
'0:06.122',-0.815
'0:06.124',-0.875
'0:06.126',-0.950
'0:06.128',-0.985
'0:06.130',-1.000
'0:06.132',-0.990
'0:06.134',-0.950
'0:06.136',-0.850
'0:06.138',-0.825
'0:06.140',-0.805
'0:06.142',-0.805
'0:06.144',-0.870
'0:06.146',-0.955
'0:06.148',-0.980
'0:06.150',-1.010
'0:06.152',-0.985
'0:06.154',-0.910
'0:06.156',-0.835
'0:06.158',-0.790
'0:06.160',-0.785
'0:06.162',-0.810
'0:06.164',-0.865
'0:06.166',-0.940
'0:06.168',-0.945
'0:06.170',-0.960
'0:06.172',-0.945
'0:06.174',-0.875
'0:06.176',-0.795
'0:06.178',-0.795
'0:06.180',-0.780
'0:06.182',-0.765
'0:06.184',-0.845
'0:06.186',-0.910
'0:06.188',-0.935
'0:06.190',-0.940
'0:06.192',-0.910
'0:06.194',-0.855
'0:06.196',-0.790
'0:06.198',-0.800
'0:06.200',-0.760
'0:06.202',-0.780
'0:06.204',-0.835
'0:06.206',-0.910
'0:06.208',-0.925
'0:06.210',-0.950
'0:06.212',-0.915
'0:06.214',-0.835
'0:06.216',-0.760
'0:06.218',-0.760
'0:06.220',-0.750
'0:06.222',-0.780
'0:06.224',-0.840
'0:06.226',-0.905
'0:06.228',-0.915
'0:06.230',-0.935
'0:06.232',-0.900
'0:06.234',-0.840
'0:06.236',-0.795
'0:06.238',-0.780
'0:06.240',-0.760
'0:06.242',-0.805
'0:06.244',-0.850
'0:06.246',-0.915
'0:06.248',-0.930
'0:06.250',-0.950
'0:06.252',-0.905
'0:06.254',-0.840
'0:06.256',-0.795
'0:06.258',-0.770
'0:06.260',-0.755
'0:06.262',-0.795
'0:06.264',-0.840
'0:06.266',-0.910
'0:06.268',-0.925
'0:06.270',-0.935
'0:06.272',-0.895
'0:06.274',-0.810
'0:06.276',-0.770
'0:06.278',-0.750
'0:06.280',-0.755
'0:06.282',-0.790
'0:06.284',-0.835
'0:06.286',-0.875
'0:06.288',-0.885
'0:06.290',-0.885
'0:06.292',-0.860
'0:06.294',-0.795
'0:06.296',-0.765
'0:06.298',-0.735
'0:06.300',-0.720
'0:06.302',-0.755
'0:06.304',-0.840
'0:06.306',-0.860
'0:06.308',-0.880
'0:06.310',-0.895
'0:06.312',-0.840
'0:06.314',-0.775
'0:06.316',-0.730
'0:06.318',-0.700
'0:06.320',-0.700
'0:06.322',-0.735
'0:06.324',-0.805
'0:06.326',-0.835
'0:06.328',-0.850
'0:06.330',-0.880
'0:06.332',-0.835
'0:06.334',-0.765
'0:06.336',-0.720
'0:06.338',-0.700
'0:06.340',-0.720
'0:06.342',-0.765
'0:06.344',-0.815
'0:06.346',-0.855
'0:06.348',-0.895
'0:06.350',-0.890
'0:06.352',-0.850
'0:06.354',-0.785
'0:06.356',-0.750
'0:06.358',-0.720
'0:06.360',-0.735
'0:06.362',-0.765
'0:06.364',-0.855
'0:06.366',-0.880
'0:06.368',-0.895
'0:06.370',-0.890
'0:06.372',-0.840
'0:06.374',-0.790
'0:06.376',-0.755
'0:06.378',-0.740
'0:06.380',-0.720
'0:06.382',-0.790
'0:06.384',-0.865
'0:06.386',-0.895
'0:06.388',-0.920
'0:06.390',-0.910
'0:06.392',-0.865
'0:06.394',-0.785
'0:06.396',-0.775
'0:06.398',-0.755
'0:06.400',-0.760
'0:06.402',-0.830
'0:06.404',-0.875
'0:06.406',-0.865
'0:06.408',-0.820
'0:06.410',-0.720
'0:06.412',-0.610
'0:06.414',-0.460
'0:06.416',-0.350
'0:06.418',-0.240
'0:06.420',-0.215
'0:06.422',-0.290
'0:06.424',-0.450
'0:06.426',-0.580
'0:06.428',-0.655
'0:06.430',-0.680
'0:06.432',-0.695
'0:06.434',-0.720
'0:06.436',-0.825
'0:06.438',-0.905
'0:06.440',-0.950
'0:06.442',-0.990
'0:06.444',-1.055
'0:06.446',-1.050
'0:06.448',-1.070
'0:06.450',-1.035
'0:06.452',-0.965
'0:06.454',-0.870
'0:06.456',-0.815
'0:06.458',-0.775
'0:06.460',-0.775
'0:06.462',-0.790
'0:06.464',-0.835
'0:06.466',-0.830
'0:06.468',-0.820
'0:06.470',-0.805
'0:06.472',-0.760
'0:06.474',-0.670
'0:06.476',-0.635
'0:06.478',-0.625
'0:06.480',-0.655
'0:06.482',-0.705
'0:06.484',-0.765
'0:06.486',-0.770
'0:06.488',-0.795
'0:06.490',-0.775
'0:06.492',-0.710
'0:06.494',-0.645
'0:06.496',-0.615
'0:06.498',-0.615
'0:06.500',-0.635
'0:06.502',-0.685
'0:06.504',-0.735
'0:06.506',-0.755
'0:06.508',-0.770
'0:06.510',-0.730
'0:06.512',-0.665
'0:06.514',-0.605
'0:06.516',-0.595
'0:06.518',-0.575
'0:06.520',-0.600
'0:06.522',-0.675
'0:06.524',-0.735
'0:06.526',-0.720
'0:06.528',-0.755
'0:06.530',-0.720
'0:06.532',-0.645
'0:06.534',-0.585
'0:06.536',-0.565
'0:06.538',-0.550
'0:06.540',-0.585
'0:06.542',-0.650
'0:06.544',-0.680
'0:06.546',-0.695
'0:06.548',-0.685
'0:06.550',-0.640
'0:06.552',-0.570
'0:06.554',-0.520
'0:06.556',-0.495
'0:06.558',-0.490
'0:06.560',-0.505
'0:06.562',-0.585
'0:06.564',-0.625
'0:06.566',-0.620
'0:06.568',-0.600
'0:06.570',-0.575
'0:06.572',-0.485
'0:06.574',-0.435
'0:06.576',-0.405
'0:06.578',-0.395
'0:06.580',-0.410
'0:06.582',-0.470
'0:06.584',-0.515
'0:06.586',-0.520
'0:06.588',-0.520
'0:06.590',-0.455
'0:06.592',-0.395
'0:06.594',-0.345
'0:06.596',-0.325
'0:06.598',-0.335
'0:06.600',-0.365
'0:06.602',-0.425
'0:06.604',-0.470
'0:06.606',-0.505
'0:06.608',-0.505
'0:06.610',-0.475
'0:06.612',-0.390
'0:06.614',-0.345
'0:06.616',-0.330
'0:06.618',-0.345
'0:06.620',-0.400
'0:06.622',-0.470
'0:06.624',-0.525
'0:06.626',-0.545
'0:06.628',-0.560
'0:06.630',-0.520
'0:06.632',-0.450
'0:06.634',-0.445
'0:06.636',-0.445
'0:06.638',-0.470
'0:06.640',-0.525
'0:06.642',-0.625
'0:06.644',-0.635
'0:06.646',-0.680
'0:06.648',-0.680
'0:06.650',-0.640
'0:06.652',-0.570
'0:06.654',-0.545
'0:06.656',-0.535
'0:06.658',-0.555
'0:06.660',-0.600
'0:06.662',-0.695
'0:06.664',-0.710
'0:06.666',-0.755
'0:06.668',-0.720
'0:06.670',-0.700
'0:06.672',-0.610
'0:06.674',-0.590
'0:06.676',-0.565
'0:06.678',-0.585
'0:06.680',-0.620
'0:06.682',-0.730
'0:06.684',-0.730
'0:06.686',-0.755
'0:06.688',-0.735
'0:06.690',-0.690
'0:06.692',-0.610
'0:06.694',-0.590
'0:06.696',-0.560
'0:06.698',-0.585
'0:06.700',-0.630
'0:06.702',-0.710
'0:06.704',-0.740
'0:06.706',-0.740
'0:06.708',-0.710
'0:06.710',-0.670
'0:06.712',-0.595
'0:06.714',-0.560
'0:06.716',-0.520
'0:06.718',-0.545
'0:06.720',-0.615
'0:06.722',-0.690
'0:06.724',-0.710
'0:06.726',-0.705
'0:06.728',-0.695
'0:06.730',-0.635
'0:06.732',-0.555
'0:06.734',-0.530
'0:06.736',-0.535
'0:06.738',-0.565
'0:06.740',-0.615
'0:06.742',-0.675
'0:06.744',-0.705
'0:06.746',-0.740
'0:06.748',-0.700
'0:06.750',-0.655
'0:06.752',-0.555
'0:06.754',-0.545
'0:06.756',-0.535
'0:06.758',-0.550
'0:06.760',-0.605
'0:06.762',-0.680
'0:06.764',-0.695
'0:06.766',-0.725
'0:06.768',-0.685
'0:06.770',-0.635
'0:06.772',-0.545
'0:06.774',-0.540
'0:06.776',-0.510
'0:06.778',-0.540
'0:06.780',-0.600
'0:06.782',-0.680
'0:06.784',-0.690
'0:06.786',-0.720
'0:06.788',-0.670
'0:06.790',-0.615
'0:06.792',-0.545
'0:06.794',-0.530
'0:06.796',-0.520
'0:06.798',-0.565
'0:06.800',-0.610
'0:06.802',-0.680
'0:06.804',-0.690
'0:06.806',-0.705
'0:06.808',-0.650
'0:06.810',-0.600
'0:06.812',-0.545
'0:06.814',-0.530
'0:06.816',-0.510
'0:06.818',-0.555
'0:06.820',-0.605
'0:06.822',-0.675
'0:06.824',-0.685
'0:06.826',-0.705
'0:06.828',-0.655
'0:06.830',-0.580
'0:06.832',-0.535
'0:06.834',-0.510
'0:06.836',-0.505
'0:06.838',-0.545
'0:06.840',-0.615
'0:06.842',-0.655
'0:06.844',-0.670
'0:06.846',-0.675
'0:06.848',-0.625
'0:06.850',-0.570
'0:06.852',-0.505
'0:06.854',-0.485
'0:06.856',-0.485
'0:06.858',-0.525
'0:06.860',-0.585
'0:06.862',-0.635
'0:06.864',-0.660
'0:06.866',-0.645
'0:06.868',-0.605
'0:06.870',-0.545
'0:06.872',-0.485
'0:06.874',-0.490
'0:06.876',-0.480
'0:06.878',-0.520
'0:06.880',-0.595
'0:06.882',-0.635
'0:06.884',-0.655
'0:06.886',-0.675
'0:06.888',-0.620
'0:06.890',-0.570
'0:06.892',-0.545
'0:06.894',-0.520
'0:06.896',-0.525
'0:06.898',-0.565
'0:06.900',-0.625
'0:06.902',-0.670
'0:06.904',-0.695
'0:06.906',-0.685
'0:06.908',-0.650
'0:06.910',-0.565
'0:06.912',-0.535
'0:06.914',-0.505
'0:06.916',-0.510
'0:06.918',-0.560
'0:06.920',-0.635
'0:06.922',-0.660
'0:06.924',-0.685
'0:06.926',-0.675
'0:06.928',-0.620
'0:06.930',-0.560
'0:06.932',-0.530
'0:06.934',-0.530
'0:06.936',-0.550
'0:06.938',-0.595
'0:06.940',-0.675
'0:06.942',-0.725
'0:06.944',-0.750
'0:06.946',-0.680
'0:06.948',-0.560
'0:06.950',-0.405
'0:06.952',-0.310
'0:06.954',-0.205
'0:06.956',-0.145
'0:06.958',-0.110
'0:06.960',-0.135
'0:06.962',-0.145
'0:06.964',-0.250
'0:06.966',-0.365
'0:06.968',-0.420
'0:06.970',-0.365
'0:06.972',-0.400
'0:06.974',-0.470
'0:06.976',-0.605
'0:06.978',-0.790
'0:06.980',-0.930
'0:06.982',-0.920
'0:06.984',-0.930
'0:06.986',-0.900
'0:06.988',-0.840
'0:06.990',-0.750
'0:06.992',-0.715
'0:06.994',-0.655
'0:06.996',-0.665
'0:06.998',-0.675
'0:07.000',-0.725
'0:07.002',-0.715
'0:07.004',-0.720
'0:07.006',-0.655
'0:07.008',-0.595
'0:07.010',-0.510
'0:07.012',-0.470
'0:07.014',-0.445
'0:07.016',-0.485
'0:07.018',-0.535
'0:07.020',-0.595
'0:07.022',-0.600
'0:07.024',-0.620
'0:07.026',-0.615
'0:07.028',-0.550
'0:07.030',-0.480
'0:07.032',-0.450
'0:07.034',-0.425
'0:07.036',-0.460
'0:07.038',-0.520
'0:07.040',-0.590
'0:07.042',-0.600
'0:07.044',-0.630
'0:07.046',-0.570
'0:07.048',-0.520
'0:07.050',-0.445
'0:07.052',-0.425
'0:07.054',-0.400
'0:07.056',-0.435
'0:07.058',-0.500
'0:07.060',-0.555
'0:07.062',-0.580
'0:07.064',-0.600
'0:07.066',-0.550
'0:07.068',-0.490
'0:07.070',-0.410
'0:07.072',-0.395
'0:07.074',-0.370
'0:07.076',-0.410
'0:07.078',-0.465
'0:07.080',-0.510
'0:07.082',-0.520
'0:07.084',-0.540
'0:07.086',-0.495
'0:07.088',-0.450
'0:07.090',-0.370
'0:07.092',-0.350
'0:07.094',-0.320
'0:07.096',-0.355
'0:07.098',-0.425
'0:07.100',-0.440
'0:07.102',-0.470
'0:07.104',-0.480
'0:07.106',-0.430
'0:07.108',-0.350
'0:07.110',-0.280
'0:07.112',-0.255
'0:07.114',-0.235
'0:07.116',-0.265
'0:07.118',-0.315
'0:07.120',-0.370
'0:07.122',-0.385
'0:07.124',-0.380
'0:07.126',-0.340
'0:07.128',-0.255
'0:07.130',-0.190
'0:07.132',-0.165
'0:07.134',-0.145
'0:07.136',-0.190
'0:07.138',-0.270
'0:07.140',-0.300
'0:07.142',-0.330
'0:07.144',-0.320
'0:07.146',-0.275
'0:07.148',-0.210
'0:07.150',-0.170
'0:07.152',-0.145
'0:07.154',-0.155
'0:07.156',-0.200
'0:07.158',-0.280
'0:07.160',-0.320
'0:07.162',-0.345
'0:07.164',-0.350
'0:07.166',-0.325
'0:07.168',-0.270
'0:07.170',-0.245
'0:07.172',-0.230
'0:07.174',-0.245
'0:07.176',-0.290
'0:07.178',-0.365
'0:07.180',-0.435
'0:07.182',-0.460
'0:07.184',-0.465
'0:07.186',-0.440
'0:07.188',-0.360
'0:07.190',-0.330
'0:07.192',-0.325
'0:07.194',-0.335
'0:07.196',-0.400
'0:07.198',-0.475
'0:07.200',-0.500
'0:07.202',-0.550
'0:07.204',-0.525
'0:07.206',-0.495
'0:07.208',-0.395
'0:07.210',-0.385
'0:07.212',-0.380
'0:07.214',-0.405
'0:07.216',-0.440
'0:07.218',-0.515
'0:07.220',-0.550
'0:07.222',-0.585
'0:07.224',-0.580
'0:07.226',-0.535
'0:07.228',-0.430
'0:07.230',-0.395
'0:07.232',-0.380
'0:07.234',-0.395
'0:07.236',-0.445
'0:07.238',-0.520
'0:07.240',-0.545
'0:07.242',-0.565
'0:07.244',-0.540
'0:07.246',-0.465
'0:07.248',-0.405
'0:07.250',-0.380
'0:07.252',-0.355
'0:07.254',-0.370
'0:07.256',-0.415
'0:07.258',-0.485
'0:07.260',-0.525
'0:07.262',-0.525
'0:07.264',-0.510
'0:07.266',-0.465
'0:07.268',-0.380
'0:07.270',-0.335
'0:07.272',-0.340
'0:07.274',-0.355
'0:07.276',-0.415
'0:07.278',-0.480
'0:07.280',-0.490
'0:07.282',-0.520
'0:07.284',-0.475
'0:07.286',-0.425
'0:07.288',-0.350
'0:07.290',-0.350
'0:07.292',-0.320
'0:07.294',-0.335
'0:07.296',-0.395
'0:07.298',-0.465
'0:07.300',-0.480
'0:07.302',-0.510
'0:07.304',-0.480
'0:07.306',-0.410
'0:07.308',-0.350
'0:07.310',-0.345
'0:07.312',-0.315
'0:07.314',-0.355
'0:07.316',-0.415
'0:07.318',-0.480
'0:07.320',-0.485
'0:07.322',-0.510
'0:07.324',-0.500
'0:07.326',-0.425
'0:07.328',-0.335
'0:07.330',-0.325
'0:07.332',-0.300
'0:07.334',-0.330
'0:07.336',-0.400
'0:07.338',-0.455
'0:07.340',-0.475
'0:07.342',-0.485
'0:07.344',-0.455
'0:07.346',-0.390
'0:07.348',-0.330
'0:07.350',-0.310
'0:07.352',-0.280
'0:07.354',-0.325
'0:07.356',-0.380
'0:07.358',-0.430
'0:07.360',-0.450
'0:07.362',-0.455
'0:07.364',-0.410
'0:07.366',-0.335
'0:07.368',-0.275
'0:07.370',-0.260
'0:07.372',-0.245
'0:07.374',-0.295
'0:07.376',-0.330
'0:07.378',-0.400
'0:07.380',-0.405
'0:07.382',-0.425
'0:07.384',-0.380
'0:07.386',-0.310
'0:07.388',-0.260
'0:07.390',-0.240
'0:07.392',-0.230
'0:07.394',-0.270
'0:07.396',-0.335
'0:07.398',-0.390
'0:07.400',-0.380
'0:07.402',-0.385
'0:07.404',-0.340
'0:07.406',-0.275
'0:07.408',-0.215
'0:07.410',-0.195
'0:07.412',-0.210
'0:07.414',-0.235
'0:07.416',-0.300
'0:07.418',-0.365
'0:07.420',-0.385
'0:07.422',-0.385
'0:07.424',-0.340
'0:07.426',-0.280
'0:07.428',-0.235
'0:07.430',-0.205
'0:07.432',-0.210
'0:07.434',-0.265
'0:07.436',-0.325
'0:07.438',-0.375
'0:07.440',-0.410
'0:07.442',-0.410
'0:07.444',-0.360
'0:07.446',-0.290
'0:07.448',-0.235
'0:07.450',-0.245
'0:07.452',-0.240
'0:07.454',-0.260
'0:07.456',-0.325
'0:07.458',-0.365
'0:07.460',-0.395
'0:07.462',-0.380
'0:07.464',-0.350
'0:07.466',-0.260
'0:07.468',-0.240
'0:07.470',-0.185
'0:07.472',-0.200
'0:07.474',-0.245
'0:07.476',-0.330
'0:07.478',-0.385
'0:07.480',-0.405
'0:07.482',-0.405
'0:07.484',-0.350
'0:07.486',-0.270
'0:07.488',-0.260
'0:07.490',-0.200
'0:07.492',-0.150
'0:07.494',-0.130
'0:07.496',-0.095
'0:07.498',-0.060
'0:07.500',0.000
'0:07.502',0.100
'0:07.504',0.250
'0:07.506',0.340
'0:07.508',0.360
'0:07.510',0.260
'0:07.512',0.085
'0:07.514',-0.030
'0:07.516',-0.165
'0:07.518',-0.250
'0:07.520',-0.375
'0:07.522',-0.485
'0:07.524',-0.575
'0:07.526',-0.470
'0:07.528',-0.430
'0:07.530',-0.380
'0:07.532',-0.365
'0:07.534',-0.405
'0:07.536',-0.460
'0:07.538',-0.470
'0:07.540',-0.465
'0:07.542',-0.365
'0:07.544',-0.305
'0:07.546',-0.210
'0:07.548',-0.170
'0:07.550',-0.120
'0:07.552',-0.140
'0:07.554',-0.175
'0:07.556',-0.240
'0:07.558',-0.235
'0:07.560',-0.260
'0:07.562',-0.220
'0:07.564',-0.155
'0:07.566',-0.070
'0:07.568',-0.045
'0:07.570',-0.025
'0:07.572',-0.045
'0:07.574',-0.105
'0:07.576',-0.160
'0:07.578',-0.180
'0:07.580',-0.200
'0:07.582',-0.165
'0:07.584',-0.090
'0:07.586',-0.025
'0:07.588',-0.005
'0:07.590',0.000
'0:07.592',-0.005
'0:07.594',-0.060
'0:07.596',-0.125
'0:07.598',-0.135
'0:07.600',-0.160
'0:07.602',-0.115
'0:07.604',-0.045
'0:07.606',0.020
'0:07.608',0.065
'0:07.610',0.085
'0:07.612',0.055
'0:07.614',-0.020
'0:07.616',-0.055
'0:07.618',-0.090
'0:07.620',-0.080
'0:07.622',-0.060
'0:07.624',0.015
'0:07.626',0.070
'0:07.628',0.115
'0:07.630',0.150
'0:07.632',0.125
'0:07.634',0.070
'0:07.636',0.010
'0:07.638',0.000
'0:07.640',0.000
'0:07.642',0.040
'0:07.644',0.110
'0:07.646',0.185
'0:07.648',0.220
'0:07.650',0.230
'0:07.652',0.200
'0:07.654',0.145
'0:07.656',0.110
'0:07.658',0.090
'0:07.660',0.110
'0:07.662',0.160
'0:07.664',0.260
'0:07.666',0.325
'0:07.668',0.355
'0:07.670',0.380
'0:07.672',0.350
'0:07.674',0.295
'0:07.676',0.250
'0:07.678',0.240
'0:07.680',0.240
'0:07.682',0.285
'0:07.684',0.350
'0:07.686',0.415
'0:07.688',0.445
'0:07.690',0.455
'0:07.692',0.400
'0:07.694',0.340
'0:07.696',0.290
'0:07.698',0.270
'0:07.700',0.270
'0:07.702',0.325
'0:07.704',0.380
'0:07.706',0.410
'0:07.708',0.425
'0:07.710',0.435
'0:07.712',0.375
'0:07.714',0.300
'0:07.716',0.245
'0:07.718',0.230
'0:07.720',0.215
'0:07.722',0.265
'0:07.724',0.315
'0:07.726',0.355
'0:07.728',0.355
'0:07.730',0.350
'0:07.732',0.295
'0:07.734',0.215
'0:07.736',0.150
'0:07.738',0.140
'0:07.740',0.165
'0:07.742',0.200
'0:07.744',0.280
'0:07.746',0.315
'0:07.748',0.330
'0:07.750',0.315
'0:07.752',0.270
'0:07.754',0.195
'0:07.756',0.155
'0:07.758',0.140
'0:07.760',0.150
'0:07.762',0.190
'0:07.764',0.265
'0:07.766',0.290
'0:07.768',0.320
'0:07.770',0.320
'0:07.772',0.280
'0:07.774',0.230
'0:07.776',0.180
'0:07.778',0.175
'0:07.780',0.180
'0:07.782',0.245
'0:07.784',0.300
'0:07.786',0.345
'0:07.788',0.370
'0:07.790',0.365
'0:07.792',0.310
'0:07.794',0.245
'0:07.796',0.220
'0:07.798',0.195
'0:07.800',0.245
'0:07.802',0.290
'0:07.804',0.395
'0:07.806',0.405
'0:07.808',0.430
'0:07.810',0.420
'0:07.812',0.385
'0:07.814',0.315
'0:07.816',0.295
'0:07.818',0.265
'0:07.820',0.290
'0:07.822',0.375
'0:07.824',0.435
'0:07.826',0.455
'0:07.828',0.475
'0:07.830',0.460
'0:07.832',0.410
'0:07.834',0.350
'0:07.836',0.320
'0:07.838',0.325
'0:07.840',0.360
'0:07.842',0.395
'0:07.844',0.480
'0:07.846',0.495
'0:07.848',0.525
'0:07.850',0.515
'0:07.852',0.465
'0:07.854',0.375
'0:07.856',0.355
'0:07.858',0.375
'0:07.860',0.370
'0:07.862',0.435
'0:07.864',0.515
'0:07.866',0.540
'0:07.868',0.570
'0:07.870',0.545
'0:07.872',0.475
'0:07.874',0.395
'0:07.876',0.385
'0:07.878',0.370
'0:07.880',0.410
'0:07.882',0.460
'0:07.884',0.545
'0:07.886',0.575
'0:07.888',0.580
'0:07.890',0.540
'0:07.892',0.510
'0:07.894',0.450
'0:07.896',0.435
'0:07.898',0.430
'0:07.900',0.460
'0:07.902',0.510
'0:07.904',0.575
'0:07.906',0.600
'0:07.908',0.620
'0:07.910',0.610
'0:07.912',0.570
'0:07.914',0.500
'0:07.916',0.490
'0:07.918',0.480
'0:07.920',0.510
'0:07.922',0.585
'0:07.924',0.625
'0:07.926',0.635
'0:07.928',0.645
'0:07.930',0.630
'0:07.932',0.600
'0:07.934',0.545
'0:07.936',0.535
'0:07.938',0.535
'0:07.940',0.560
'0:07.942',0.625
'0:07.944',0.685
'0:07.946',0.725
'0:07.948',0.725
'0:07.950',0.695
'0:07.952',0.645
'0:07.954',0.600
'0:07.956',0.585
'0:07.958',0.585
'0:07.960',0.630
'0:07.962',0.700
'0:07.964',0.735
'0:07.966',0.770
'0:07.968',0.780
'0:07.970',0.730
'0:07.972',0.660
'0:07.974',0.635
'0:07.976',0.630
'0:07.978',0.640
'0:07.980',0.670
'0:07.982',0.755
'0:07.984',0.790
'0:07.986',0.815
'0:07.988',0.825
'0:07.990',0.795
'0:07.992',0.720
'0:07.994',0.680
'0:07.996',0.650
'0:07.998',0.635
'0:08.000',0.685
'0:08.002',0.740
'0:08.004',0.790
'0:08.006',0.830
'0:08.008',0.840
'0:08.010',0.775
'0:08.012',0.705
'0:08.014',0.690
'0:08.016',0.670
'0:08.018',0.680
'0:08.020',0.725
'0:08.022',0.800
'0:08.024',0.825
'0:08.026',0.860
'0:08.028',0.865
'0:08.030',0.800
'0:08.032',0.750
'0:08.034',0.720
'0:08.036',0.715
'0:08.038',0.700
'0:08.040',0.775
'0:08.042',0.860
'0:08.044',0.860
'0:08.046',0.875
'0:08.048',0.875
'0:08.050',0.820
'0:08.052',0.735
'0:08.054',0.705
'0:08.056',0.690
'0:08.058',0.710
'0:08.060',0.770
'0:08.062',0.860
'0:08.064',0.940
'0:08.066',1.030
'0:08.068',1.135
'0:08.070',1.180
'0:08.072',1.205
'0:08.074',1.265
'0:08.076',1.350
'0:08.078',1.400
'0:08.080',1.395
'0:08.082',1.390
'0:08.084',1.230
'0:08.086',1.200
'0:08.088',1.130
'0:08.090',1.000
'0:08.092',0.810
'0:08.094',0.655
'0:08.096',0.525
'0:08.098',0.530
'0:08.100',0.600
'0:08.102',0.690
'0:08.104',0.750
'0:08.106',0.805
'0:08.108',0.810
'0:08.110',0.785
'0:08.112',0.770
'0:08.114',0.785
'0:08.116',0.790
'0:08.118',0.845
'0:08.120',0.935
'0:08.122',1.005
'0:08.124',1.035
'0:08.126',1.075
'0:08.128',1.055
'0:08.130',1.025
'0:08.132',0.975
'0:08.134',0.945
'0:08.136',0.940
'0:08.138',0.980
'0:08.140',1.035
'0:08.142',1.100
'0:08.144',1.110
'0:08.146',1.135
'0:08.148',1.120
'0:08.150',1.080
'0:08.152',1.025
'0:08.154',1.005
'0:08.156',0.990
'0:08.158',1.035
'0:08.160',1.080
'0:08.162',1.135
'0:08.164',1.155
'0:08.166',1.190
'0:08.168',1.170
'0:08.170',1.125
'0:08.172',1.085
'0:08.174',1.060
'0:08.176',1.050
'0:08.178',1.095
'0:08.180',1.145
'0:08.182',1.210
'0:08.184',1.230
'0:08.186',1.230
'0:08.188',1.225
'0:08.190',1.170
'0:08.192',1.130
'0:08.194',1.130
'0:08.196',1.140
'0:08.198',1.155
'0:08.200',1.205
'0:08.202',1.275
'0:08.204',1.305
'0:08.206',1.310
'0:08.208',1.305
'0:08.210',1.265
'0:08.212',1.210
'0:08.214',1.205
'0:08.216',1.205
'0:08.218',1.245
'0:08.220',1.315
'0:08.222',1.370
'0:08.224',1.390
'0:08.226',1.415
'0:08.228',1.400
'0:08.230',1.375
'0:08.232',1.330
'0:08.234',1.320
'0:08.236',1.340
'0:08.238',1.385
'0:08.240',1.435
'0:08.242',1.495
'0:08.244',1.530
'0:08.246',1.530
'0:08.248',1.515
'0:08.250',1.470
'0:08.252',1.460
'0:08.254',1.440
'0:08.256',1.450
'0:08.258',1.485
'0:08.260',1.535
'0:08.262',1.570
'0:08.264',1.580
'0:08.266',1.590
'0:08.268',1.545
'0:08.270',1.495
'0:08.272',1.460
'0:08.274',1.450
'0:08.276',1.435
'0:08.278',1.470
'0:08.280',1.520
'0:08.282',1.540
'0:08.284',1.545
'0:08.286',1.530
'0:08.288',1.500
'0:08.290',1.450
'0:08.292',1.400
'0:08.294',1.385
'0:08.296',1.360
'0:08.298',1.395
'0:08.300',1.435
'0:08.302',1.425
'0:08.304',1.445
'0:08.306',1.435
'0:08.308',1.385
'0:08.310',1.325
'0:08.312',1.300
'0:08.314',1.280
'0:08.316',1.290
'0:08.318',1.315
'0:08.320',1.365
'0:08.322',1.390
'0:08.324',1.420
'0:08.326',1.415
'0:08.328',1.380
'0:08.330',1.310
'0:08.332',1.300
'0:08.334',1.270
'0:08.336',1.270
'0:08.338',1.290
'0:08.340',1.380
'0:08.342',1.385
'0:08.344',1.405
'0:08.346',1.415
'0:08.348',1.365
'0:08.350',1.310
'0:08.352',1.305
'0:08.354',1.290
'0:08.356',1.300
'0:08.358',1.335
'0:08.360',1.390
'0:08.362',1.415
'0:08.364',1.440
'0:08.366',1.445
'0:08.368',1.395
'0:08.370',1.335
'0:08.372',1.330
'0:08.374',1.310
'0:08.376',1.335
'0:08.378',1.390
'0:08.380',1.435
'0:08.382',1.445
'0:08.384',1.470
'0:08.386',1.460
'0:08.388',1.430
'0:08.390',1.375
'0:08.392',1.355
'0:08.394',1.340
'0:08.396',1.365
'0:08.398',1.405
'0:08.400',1.440
'0:08.402',1.450
'0:08.404',1.470
'0:08.406',1.475
'0:08.408',1.425
'0:08.410',1.365
'0:08.412',1.345
'0:08.414',1.330
'0:08.416',1.355
'0:08.418',1.405
'0:08.420',1.465
'0:08.422',1.465
'0:08.424',1.490
'0:08.426',1.470
'0:08.428',1.435
'0:08.430',1.385
'0:08.432',1.375
'0:08.434',1.355
'0:08.436',1.375
'0:08.438',1.420
'0:08.440',1.460
'0:08.442',1.450
'0:08.444',1.480
'0:08.446',1.485
'0:08.448',1.440
'0:08.450',1.400
'0:08.452',1.375
'0:08.454',1.345
'0:08.456',1.380
'0:08.458',1.420
'0:08.460',1.460
'0:08.462',1.465
'0:08.464',1.495
'0:08.466',1.465
'0:08.468',1.430
'0:08.470',1.400
'0:08.472',1.385
'0:08.474',1.355
'0:08.476',1.400
'0:08.478',1.450
'0:08.480',1.480
'0:08.482',1.485
'0:08.484',1.505
'0:08.486',1.480
'0:08.488',1.435
'0:08.490',1.390
'0:08.492',1.385
'0:08.494',1.380
'0:08.496',1.425
'0:08.498',1.470
'0:08.500',1.495
'0:08.502',1.520
'0:08.504',1.540
'0:08.506',1.510
'0:08.508',1.460
'0:08.510',1.450
'0:08.512',1.415
'0:08.514',1.405
'0:08.516',1.445
'0:08.518',1.505
'0:08.520',1.530
'0:08.522',1.550
'0:08.524',1.555
'0:08.526',1.525
'0:08.528',1.475
'0:08.530',1.445
'0:08.532',1.430
'0:08.534',1.415
'0:08.536',1.470
'0:08.538',1.515
'0:08.540',1.550
'0:08.542',1.565
'0:08.544',1.585
'0:08.546',1.540
'0:08.548',1.475
'0:08.550',1.455
'0:08.552',1.420
'0:08.554',1.415
'0:08.556',1.460
'0:08.558',1.505
'0:08.560',1.535
'0:08.562',1.540
'0:08.564',1.535
'0:08.566',1.510
'0:08.568',1.445
'0:08.570',1.430
'0:08.572',1.410
'0:08.574',1.410
'0:08.576',1.440
'0:08.578',1.465
'0:08.580',1.495
'0:08.582',1.525
'0:08.584',1.525
'0:08.586',1.500
'0:08.588',1.445
'0:08.590',1.415
'0:08.592',1.415
'0:08.594',1.415
'0:08.596',1.435
'0:08.598',1.495
'0:08.600',1.500
'0:08.602',1.520
'0:08.604',1.515
'0:08.606',1.495
'0:08.608',1.450
'0:08.610',1.430
'0:08.612',1.400
'0:08.614',1.380
'0:08.616',1.410
'0:08.618',1.455
'0:08.620',1.455
'0:08.622',1.515
'0:08.624',1.470
'0:08.626',1.450
'0:08.628',1.435
'0:08.630',1.480
'0:08.632',1.545
'0:08.634',1.620
'0:08.636',1.730
'0:08.638',1.865
'0:08.640',1.955
'0:08.642',2.045
'0:08.644',2.070
'0:08.646',1.995
'0:08.648',1.840
'0:08.650',1.680
'0:08.652',1.640
'0:08.654',1.615
'0:08.656',1.545
'0:08.658',1.505
'0:08.660',1.375
'0:08.662',1.300
'0:08.664',1.280
'0:08.666',1.260
'0:08.668',1.205
'0:08.670',1.205
'0:08.672',1.210
'0:08.674',1.220
'0:08.676',1.290
'0:08.678',1.390
'0:08.680',1.420
'0:08.682',1.475
'0:08.684',1.495
'0:08.686',1.460
'0:08.688',1.420
'0:08.690',1.435
'0:08.692',1.435
'0:08.694',1.460
'0:08.696',1.510
'0:08.698',1.575
'0:08.700',1.570
'0:08.702',1.600
'0:08.704',1.580
'0:08.706',1.550
'0:08.708',1.490
'0:08.710',1.485
'0:08.712',1.465
'0:08.714',1.480
'0:08.716',1.520
'0:08.718',1.570
'0:08.720',1.595
'0:08.722',1.615
'0:08.724',1.605
'0:08.726',1.555
'0:08.728',1.510
'0:08.730',1.505
'0:08.732',1.490
'0:08.734',1.485
'0:08.736',1.560
'0:08.738',1.615
'0:08.740',1.615
'0:08.742',1.625
'0:08.744',1.615
'0:08.746',1.575
'0:08.748',1.530
'0:08.750',1.515
'0:08.752',1.505
'0:08.754',1.525
'0:08.756',1.585
'0:08.758',1.625
'0:08.760',1.645
'0:08.762',1.665
'0:08.764',1.635
'0:08.766',1.595
'0:08.768',1.555
'0:08.770',1.550
'0:08.772',1.530
'0:08.774',1.560
'0:08.776',1.635
'0:08.778',1.665
'0:08.780',1.690
'0:08.782',1.715
'0:08.784',1.680
'0:08.786',1.635
'0:08.788',1.620
'0:08.790',1.615
'0:08.792',1.615
'0:08.794',1.655
'0:08.796',1.690
'0:08.798',1.735
'0:08.800',1.780
'0:08.802',1.800
'0:08.804',1.770
'0:08.806',1.745
'0:08.808',1.705
'0:08.810',1.715
'0:08.812',1.690
'0:08.814',1.725
'0:08.816',1.790
'0:08.818',1.835
'0:08.820',1.850
'0:08.822',1.855
'0:08.824',1.820
'0:08.826',1.775
'0:08.828',1.730
'0:08.830',1.705
'0:08.832',1.700
'0:08.834',1.735
'0:08.836',1.800
'0:08.838',1.810
'0:08.840',1.830
'0:08.842',1.830
'0:08.844',1.785
'0:08.846',1.705
'0:08.848',1.675
'0:08.850',1.645
'0:08.852',1.615
'0:08.854',1.650
'0:08.856',1.700
'0:08.858',1.720
'0:08.860',1.720
'0:08.862',1.710
'0:08.864',1.665
'0:08.866',1.580
'0:08.868',1.530
'0:08.870',1.505
'0:08.872',1.505
'0:08.874',1.520
'0:08.876',1.575
'0:08.878',1.605
'0:08.880',1.630
'0:08.882',1.605
'0:08.884',1.560
'0:08.886',1.485
'0:08.888',1.450
'0:08.890',1.430
'0:08.892',1.425
'0:08.894',1.475
'0:08.896',1.520
'0:08.898',1.535
'0:08.900',1.545
'0:08.902',1.550
'0:08.904',1.510
'0:08.906',1.450
'0:08.908',1.430
'0:08.910',1.400
'0:08.912',1.410
'0:08.914',1.450
'0:08.916',1.520
'0:08.918',1.515
'0:08.920',1.550
'0:08.922',1.535
'0:08.924',1.505
'0:08.926',1.470
'0:08.928',1.420
'0:08.930',1.395
'0:08.932',1.405
'0:08.934',1.455
'0:08.936',1.535
'0:08.938',1.545
'0:08.940',1.570
'0:08.942',1.555
'0:08.944',1.515
'0:08.946',1.430
'0:08.948',1.410
'0:08.950',1.380
'0:08.952',1.410
'0:08.954',1.470
'0:08.956',1.540
'0:08.958',1.550
'0:08.960',1.575
'0:08.962',1.565
'0:08.964',1.495
'0:08.966',1.425
'0:08.968',1.410
'0:08.970',1.400
'0:08.972',1.405
'0:08.974',1.445
'0:08.976',1.525
'0:08.978',1.540
'0:08.980',1.545
'0:08.982',1.525
'0:08.984',1.485
'0:08.986',1.400
'0:08.988',1.390
'0:08.990',1.360
'0:08.992',1.375
'0:08.994',1.435
'0:08.996',1.510
'0:08.998',1.530
'0:09.000',1.540
'0:09.002',1.505
'0:09.004',1.465
'0:09.006',1.390
'0:09.008',1.365
'0:09.010',1.360
'0:09.012',1.385
'0:09.014',1.440
'0:09.016',1.500
'0:09.018',1.500
'0:09.020',1.530
'0:09.022',1.495
'0:09.024',1.445
'0:09.026',1.385
'0:09.028',1.350
'0:09.030',1.340
'0:09.032',1.385
'0:09.034',1.440
'0:09.036',1.495
'0:09.038',1.510
'0:09.040',1.515
'0:09.042',1.485
'0:09.044',1.445
'0:09.046',1.375
'0:09.048',1.370
'0:09.050',1.340
'0:09.052',1.360
'0:09.054',1.430
'0:09.056',1.500
'0:09.058',1.505
'0:09.060',1.505
'0:09.062',1.475
'0:09.064',1.440
'0:09.066',1.375
'0:09.068',1.340
'0:09.070',1.335
'0:09.072',1.365
'0:09.074',1.430
'0:09.076',1.510
'0:09.078',1.530
'0:09.080',1.530
'0:09.082',1.485
'0:09.084',1.415
'0:09.086',1.360
'0:09.088',1.345
'0:09.090',1.325
'0:09.092',1.365
'0:09.094',1.445
'0:09.096',1.485
'0:09.098',1.500
'0:09.100',1.505
'0:09.102',1.475
'0:09.104',1.415
'0:09.106',1.375
'0:09.108',1.360
'0:09.110',1.350
'0:09.112',1.385
'0:09.114',1.435
'0:09.116',1.480
'0:09.118',1.490
'0:09.120',1.490
'0:09.122',1.430
'0:09.124',1.355
'0:09.126',1.310
'0:09.128',1.290
'0:09.130',1.300
'0:09.132',1.330
'0:09.134',1.370
'0:09.136',1.410
'0:09.138',1.445
'0:09.140',1.450
'0:09.142',1.400
'0:09.144',1.335
'0:09.146',1.285
'0:09.148',1.260
'0:09.150',1.260
'0:09.152',1.320
'0:09.154',1.390
'0:09.156',1.420
'0:09.158',1.450
'0:09.160',1.430
'0:09.162',1.385
'0:09.164',1.305
'0:09.166',1.265
'0:09.168',1.250
'0:09.170',1.265
'0:09.172',1.300
'0:09.174',1.365
'0:09.176',1.380
'0:09.178',1.405
'0:09.180',1.375
'0:09.182',1.325
'0:09.184',1.235
'0:09.186',1.215
'0:09.188',1.230
'0:09.190',1.320
'0:09.192',1.405
'0:09.194',1.580
'0:09.196',1.670
'0:09.198',1.770
'0:09.200',1.855
'0:09.202',1.865
'0:09.204',1.765
'0:09.206',1.670
'0:09.208',1.535
'0:09.210',1.445
'0:09.212',1.490
'0:09.214',1.505
'0:09.216',1.420
'0:09.218',1.335
'0:09.220',1.220
'0:09.222',1.070
'0:09.224',1.005
'0:09.226',1.010
'0:09.228',1.005
'0:09.230',1.035
'0:09.232',1.095
'0:09.234',1.180
'0:09.236',1.205
'0:09.238',1.245
'0:09.240',1.265
'0:09.242',1.230
'0:09.244',1.165
'0:09.246',1.175
'0:09.248',1.190
'0:09.250',1.210
'0:09.252',1.295
'0:09.254',1.375
'0:09.256',1.385
'0:09.258',1.420
'0:09.260',1.370
'0:09.262',1.335
'0:09.264',1.260
'0:09.266',1.240
'0:09.268',1.230
'0:09.270',1.245
'0:09.272',1.290
'0:09.274',1.370
'0:09.276',1.385
'0:09.278',1.420
'0:09.280',1.380
'0:09.282',1.330
'0:09.284',1.250
'0:09.286',1.235
'0:09.288',1.210
'0:09.290',1.250
'0:09.292',1.320
'0:09.294',1.380
'0:09.296',1.400
'0:09.298',1.425
'0:09.300',1.430
'0:09.302',1.345
'0:09.304',1.285
'0:09.306',1.255
'0:09.308',1.240
'0:09.310',1.285
'0:09.312',1.340
'0:09.314',1.410
'0:09.316',1.445
'0:09.318',1.435
'0:09.320',1.405
'0:09.322',1.360
'0:09.324',1.285
'0:09.326',1.270
'0:09.328',1.255
'0:09.330',1.300
'0:09.332',1.375
'0:09.334',1.420
'0:09.336',1.455
'0:09.338',1.460
'0:09.340',1.445
'0:09.342',1.375
'0:09.344',1.330
'0:09.346',1.310
'0:09.348',1.300
'0:09.350',1.350
'0:09.352',1.420
'0:09.354',1.490
'0:09.356',1.525
'0:09.358',1.530
'0:09.360',1.485
'0:09.362',1.420
'0:09.364',1.385
'0:09.366',1.385
'0:09.368',1.385
'0:09.370',1.415
'0:09.372',1.505
'0:09.374',1.545
'0:09.376',1.555
'0:09.378',1.575
'0:09.380',1.520
'0:09.382',1.455
'0:09.384',1.395
'0:09.386',1.385
'0:09.388',1.375
'0:09.390',1.445
'0:09.392',1.495
'0:09.394',1.530
'0:09.396',1.535
'0:09.398',1.545
'0:09.400',1.510
'0:09.402',1.430
'0:09.404',1.370
'0:09.406',1.320
'0:09.408',1.325
'0:09.410',1.360
'0:09.412',1.410
'0:09.414',1.465
'0:09.416',1.465
'0:09.418',1.440
'0:09.420',1.375
'0:09.422',1.275
'0:09.424',1.245
'0:09.426',1.215
'0:09.428',1.180
'0:09.430',1.230
'0:09.432',1.310
'0:09.434',1.315
'0:09.436',1.335
'0:09.438',1.315
'0:09.440',1.255
'0:09.442',1.160
'0:09.444',1.120
'0:09.446',1.100
'0:09.448',1.120
'0:09.450',1.155
'0:09.452',1.220
'0:09.454',1.250
'0:09.456',1.270
'0:09.458',1.250
'0:09.460',1.205
'0:09.462',1.105
'0:09.464',1.080
'0:09.466',1.055
'0:09.468',1.060
'0:09.470',1.120
'0:09.472',1.200
'0:09.474',1.230
'0:09.476',1.250
'0:09.478',1.240
'0:09.480',1.175
'0:09.482',1.100
'0:09.484',1.060
'0:09.486',1.030
'0:09.488',1.060
'0:09.490',1.100
'0:09.492',1.195
'0:09.494',1.210
'0:09.496',1.250
'0:09.498',1.225
'0:09.500',1.170
'0:09.502',1.095
'0:09.504',1.065
'0:09.506',1.035
'0:09.508',1.065
'0:09.510',1.125
'0:09.512',1.190
'0:09.514',1.210
'0:09.516',1.250
'0:09.518',1.215
'0:09.520',1.170
'0:09.522',1.090
'0:09.524',1.050
'0:09.526',1.040
'0:09.528',1.065
'0:09.530',1.125
'0:09.532',1.190
'0:09.534',1.215
'0:09.536',1.230
'0:09.538',1.205
'0:09.540',1.155
'0:09.542',1.065
'0:09.544',1.055
'0:09.546',1.035
'0:09.548',1.065
'0:09.550',1.110
'0:09.552',1.170
'0:09.554',1.185
'0:09.556',1.205
'0:09.558',1.175
'0:09.560',1.105
'0:09.562',1.045
'0:09.564',1.035
'0:09.566',0.990
'0:09.568',1.045
'0:09.570',1.090
'0:09.572',1.145
'0:09.574',1.165
'0:09.576',1.180
'0:09.578',1.155
'0:09.580',1.095
'0:09.582',1.015
'0:09.584',1.005
'0:09.586',0.980
'0:09.588',1.015
'0:09.590',1.085
'0:09.592',1.140
'0:09.594',1.165
'0:09.596',1.170
'0:09.598',1.130
'0:09.600',1.070
'0:09.602',1.020
'0:09.604',1.005
'0:09.606',0.990
'0:09.608',1.025
'0:09.610',1.095
'0:09.612',1.145
'0:09.614',1.160
'0:09.616',1.170
'0:09.618',1.140
'0:09.620',1.080
'0:09.622',0.995
'0:09.624',0.980
'0:09.626',0.975
'0:09.628',1.050
'0:09.630',1.095
'0:09.632',1.150
'0:09.634',1.160
'0:09.636',1.190
'0:09.638',1.125
'0:09.640',1.070
'0:09.642',1.000
'0:09.644',1.000
'0:09.646',0.980
'0:09.648',1.025
'0:09.650',1.095
'0:09.652',1.130
'0:09.654',1.145
'0:09.656',1.155
'0:09.658',1.130
'0:09.660',1.070
'0:09.662',0.970
'0:09.664',0.950
'0:09.666',0.970
'0:09.668',0.980
'0:09.670',1.025
'0:09.672',1.090
'0:09.674',1.135
'0:09.676',1.095
'0:09.678',1.040
'0:09.680',0.965
'0:09.682',0.960
'0:09.684',0.925
'0:09.686',0.920
'0:09.688',0.915
'0:09.690',0.990
'0:09.692',1.050
'0:09.694',1.080
'0:09.696',1.060
'0:09.698',1.020
'0:09.700',0.965
'0:09.702',0.910
'0:09.704',0.880
'0:09.706',0.885
'0:09.708',0.950
'0:09.710',1.025
'0:09.712',1.060
'0:09.714',1.040
'0:09.716',1.050
'0:09.718',1.000
'0:09.720',0.915
'0:09.722',0.870
'0:09.724',0.815
'0:09.726',0.795
'0:09.728',0.890
'0:09.730',0.960
'0:09.732',0.925
'0:09.734',1.000
'0:09.736',1.025
'0:09.738',1.025
'0:09.740',1.030
'0:09.742',1.050
'0:09.744',1.125
'0:09.746',1.275
'0:09.748',1.385
'0:09.750',1.530
'0:09.752',1.555
'0:09.754',1.490
'0:09.756',1.340
'0:09.758',1.195
'0:09.760',1.105
'0:09.762',1.010
'0:09.764',0.900
'0:09.766',0.775
'0:09.768',0.685
'0:09.770',0.765
'0:09.772',0.805
'0:09.774',0.850
'0:09.776',0.820
'0:09.778',0.780
'0:09.780',0.670
'0:09.782',0.715
'0:09.784',0.685
'0:09.786',0.720
'0:09.788',0.840
'0:09.790',0.895
'0:09.792',0.955
'0:09.794',1.000
'0:09.796',1.000
'0:09.798',0.960
'0:09.800',0.875
'0:09.802',0.865
'0:09.804',0.855
'0:09.806',0.880
'0:09.808',0.905
'0:09.810',0.975
'0:09.812',1.015
'0:09.814',1.025
'0:09.816',1.005
'0:09.818',0.960
'0:09.820',0.900
'0:09.822',0.845
'0:09.824',0.845
'0:09.826',0.840
'0:09.828',0.875
'0:09.830',0.980
'0:09.832',1.030
'0:09.834',1.010
'0:09.836',1.010
'0:09.838',0.950
'0:09.840',0.885
'0:09.842',0.875
'0:09.844',0.870
'0:09.846',0.870
'0:09.848',0.930
'0:09.850',1.030
'0:09.852',1.040
'0:09.854',1.075
'0:09.856',1.090
'0:09.858',0.995
'0:09.860',0.895
'0:09.862',0.830
'0:09.864',0.825
'0:09.866',0.875
'0:09.868',0.990
'0:09.870',1.005
'0:09.872',1.015
'0:09.874',1.010
'0:09.876',1.040
'0:09.878',0.975
'0:09.880',0.920
'0:09.882',0.915
'0:09.884',0.895
'0:09.886',0.945
'0:09.888',0.945
'0:09.890',1.035
'0:09.892',1.080
'0:09.894',1.075
'0:09.896',1.095
'0:09.898',1.055
'0:09.900',0.965
'0:09.902',0.955
'0:09.904',0.970
'0:09.906',1.015
'0:09.908',1.075
'0:09.910',1.160
'0:09.912',1.195
'0:09.914',1.225
'0:09.916',1.175
'0:09.918',1.115
'0:09.920',1.080
'0:09.922',1.040
'0:09.924',1.020
'0:09.926',1.055
'0:09.928',1.150
'0:09.930',1.235
'0:09.932',1.245
'0:09.934',1.235
'0:09.936',1.190
'0:09.938',1.155
'0:09.940',1.090
'0:09.942',1.070
'0:09.944',1.040
'0:09.946',1.075
'0:09.948',1.150
'0:09.950',1.145
'0:09.952',1.180
'0:09.954',1.165
'0:09.956',1.115
'0:09.958',1.060
'0:09.960',0.995
'0:09.962',0.920
'0:09.964',0.910
'0:09.966',0.955
'0:09.968',0.990
'0:09.970',1.055
'0:09.972',1.040
'0:09.974',1.010
'0:09.976',0.970
'0:09.978',0.855
'0:09.980',0.825
'0:09.982',0.780
'0:09.984',0.790
'0:09.986',0.835
'0:09.988',0.895
'0:09.990',0.920
'0:09.992',0.930
'0:09.994',0.935
'0:09.996',0.880
'0:09.998',0.790
'0:10.000',0.765
'0:10.002',0.730
'0:10.004',0.775
'0:10.006',0.795
'0:10.008',0.855
'0:10.010',0.870
'0:10.012',0.880
'0:10.014',0.870
'0:10.016',0.835
'0:10.018',0.755
'0:10.020',0.705
'0:10.022',0.690
'0:10.024',0.740
'0:10.026',0.745
'0:10.028',0.835
'0:10.030',0.885
'0:10.032',0.890
'0:10.034',0.855
'0:10.036',0.800
'0:10.038',0.735
'0:10.040',0.740
'0:10.042',0.735
'0:10.044',0.715
'0:10.046',0.780
'0:10.048',0.815
'0:10.050',0.860
'0:10.052',0.890
'0:10.054',0.870
'0:10.056',0.830
'0:10.058',0.745
'0:10.060',0.745
'0:10.062',0.720
'0:10.064',0.710
'0:10.066',0.780
'0:10.068',0.870
'0:10.070',0.865
'0:10.072',0.910
'0:10.074',0.850
'0:10.076',0.845
'0:10.078',0.725
'0:10.080',0.705
'0:10.082',0.685
'0:10.084',0.715
'0:10.086',0.745
'0:10.088',0.830
'0:10.090',0.850
'0:10.092',0.875
'0:10.094',0.835
'0:10.096',0.790
'0:10.098',0.705
'0:10.100',0.680
'0:10.102',0.665
'0:10.104',0.690
'0:10.106',0.760
'0:10.108',0.825
'0:10.110',0.850
'0:10.112',0.845
'0:10.114',0.775
'0:10.116',0.740
'0:10.118',0.635
'0:10.120',0.655
'0:10.122',0.650
'0:10.124',0.665
'0:10.126',0.675
'0:10.128',0.780
'0:10.130',0.805
'0:10.132',0.835
'0:10.134',0.820
'0:10.136',0.750
'0:10.138',0.670
'0:10.140',0.655
'0:10.142',0.630
'0:10.144',0.670
'0:10.146',0.745
'0:10.148',0.785
'0:10.150',0.805
'0:10.152',0.830
'0:10.154',0.805
'0:10.156',0.725
'0:10.158',0.630
'0:10.160',0.640
'0:10.162',0.600
'0:10.164',0.670
'0:10.166',0.740
'0:10.168',0.795
'0:10.170',0.805
'0:10.172',0.830
'0:10.174',0.800
'0:10.176',0.735
'0:10.178',0.645
'0:10.180',0.625
'0:10.182',0.670
'0:10.184',0.700
'0:10.186',0.800
'0:10.188',0.820
'0:10.190',0.840
'0:10.192',0.850
'0:10.194',0.810
'0:10.196',0.745
'0:10.198',0.645
'0:10.200',0.625
'0:10.202',0.600
'0:10.204',0.680
'0:10.206',0.760
'0:10.208',0.810
'0:10.210',0.795
'0:10.212',0.835
'0:10.214',0.760
'0:10.216',0.670
'0:10.218',0.625
'0:10.220',0.595
'0:10.222',0.605
'0:10.224',0.610
'0:10.226',0.690
'0:10.228',0.735
'0:10.230',0.770
'0:10.232',0.760
'0:10.234',0.690
'0:10.236',0.620
'0:10.238',0.585
'0:10.240',0.570
'0:10.242',0.545
'0:10.244',0.585
'0:10.246',0.670
'0:10.248',0.720
'0:10.250',0.760
'0:10.252',0.735
'0:10.254',0.680
'0:10.256',0.590
'0:10.258',0.560
'0:10.260',0.545
'0:10.262',0.550
'0:10.264',0.590
'0:10.266',0.680
'0:10.268',0.700
'0:10.270',0.720
'0:10.272',0.690
'0:10.274',0.615
'0:10.276',0.520
'0:10.278',0.460
'0:10.280',0.445
'0:10.282',0.435
'0:10.284',0.485
'0:10.286',0.570
'0:10.288',0.670
'0:10.290',0.770
'0:10.292',0.870
'0:10.294',0.910
'0:10.296',0.970
'0:10.298',1.025
'0:10.300',1.105
'0:10.302',1.185
'0:10.304',1.215
'0:10.306',1.250
'0:10.308',1.190
'0:10.310',1.060
'0:10.312',0.970
'0:10.314',0.835
'0:10.316',0.560
'0:10.318',0.385
'0:10.320',0.210
'0:10.322',0.175
'0:10.324',0.240
'0:10.326',0.340
'0:10.328',0.390
'0:10.330',0.435
'0:10.332',0.445
'0:10.334',0.400
'0:10.336',0.380
'0:10.338',0.360
'0:10.340',0.370
'0:10.342',0.430
'0:10.344',0.500
'0:10.346',0.600
'0:10.348',0.640
'0:10.350',0.670
'0:10.352',0.655
'0:10.354',0.610
'0:10.356',0.555
'0:10.358',0.525
'0:10.360',0.430
'0:10.362',0.500
'0:10.364',0.565
'0:10.366',0.655
'0:10.368',0.680
'0:10.370',0.680
'0:10.372',0.670
'0:10.374',0.640
'0:10.376',0.550
'0:10.378',0.530
'0:10.380',0.520
'0:10.382',0.530
'0:10.384',0.585
'0:10.386',0.675
'0:10.388',0.710
'0:10.390',0.710
'0:10.392',0.695
'0:10.394',0.640
'0:10.396',0.555
'0:10.398',0.520
'0:10.400',0.505
'0:10.402',0.555
'0:10.404',0.605
'0:10.406',0.685
'0:10.408',0.715
'0:10.410',0.720
'0:10.412',0.720
'0:10.414',0.645
'0:10.416',0.570
'0:10.418',0.570
'0:10.420',0.525
'0:10.422',0.560
'0:10.424',0.660
'0:10.426',0.715
'0:10.428',0.730
'0:10.430',0.775
'0:10.432',0.740
'0:10.434',0.680
'0:10.436',0.610
'0:10.438',0.605
'0:10.440',0.615
'0:10.442',0.640
'0:10.444',0.720
'0:10.446',0.795
'0:10.448',0.805
'0:10.450',0.830
'0:10.452',0.820
'0:10.454',0.760
'0:10.456',0.715
'0:10.458',0.695
'0:10.460',0.690
'0:10.462',0.730
'0:10.464',0.820
'0:10.466',0.910
'0:10.468',0.935
'0:10.470',0.945
'0:10.472',0.935
'0:10.474',0.855
'0:10.476',0.830
'0:10.478',0.785
'0:10.480',0.785
'0:10.482',0.820
'0:10.484',0.910
'0:10.486',0.955
'0:10.488',1.015
'0:10.490',0.980
'0:10.492',0.925
'0:10.494',0.850
'0:10.496',0.805
'0:10.498',0.755
'0:10.500',0.760
'0:10.502',0.785
'0:10.504',0.855
'0:10.506',0.905
'0:10.508',0.925
'0:10.510',0.895
'0:10.512',0.835
'0:10.514',0.720
'0:10.516',0.695
'0:10.518',0.630
'0:10.520',0.610
'0:10.522',0.635
'0:10.524',0.715
'0:10.526',0.775
'0:10.528',0.755
'0:10.530',0.750
'0:10.532',0.700
'0:10.534',0.605
'0:10.536',0.535
'0:10.538',0.505
'0:10.540',0.505
'0:10.542',0.530
'0:10.544',0.620
'0:10.546',0.650
'0:10.548',0.650
'0:10.550',0.635
'0:10.552',0.610
'0:10.554',0.520
'0:10.556',0.465
'0:10.558',0.435
'0:10.560',0.445
'0:10.562',0.495
'0:10.564',0.570
'0:10.566',0.615
'0:10.568',0.610
'0:10.570',0.590
'0:10.572',0.560
'0:10.574',0.485
'0:10.576',0.435
'0:10.578',0.410
'0:10.580',0.410
'0:10.582',0.455
'0:10.584',0.595
'0:10.586',0.625
'0:10.588',0.620
'0:10.590',0.620
'0:10.592',0.550
'0:10.594',0.485
'0:10.596',0.440
'0:10.598',0.405
'0:10.600',0.420
'0:10.602',0.465
'0:10.604',0.550
'0:10.606',0.605
'0:10.608',0.605
'0:10.610',0.595
'0:10.612',0.565
'0:10.614',0.455
'0:10.616',0.450
'0:10.618',0.410
'0:10.620',0.420
'0:10.622',0.500
'0:10.624',0.560
'0:10.626',0.590
'0:10.628',0.600
'0:10.630',0.525
'0:10.632',0.515
'0:10.634',0.460
'0:10.636',0.430
'0:10.638',0.380
'0:10.640',0.390
'0:10.642',0.480
'0:10.644',0.555
'0:10.646',0.530
'0:10.648',0.575
'0:10.650',0.580
'0:10.652',0.520
'0:10.654',0.390
'0:10.656',0.400
'0:10.658',0.345
'0:10.660',0.420
'0:10.662',0.540
'0:10.664',0.565
'0:10.666',0.570
'0:10.668',0.610
'0:10.670',0.570
'0:10.672',0.515
'0:10.674',0.455
'0:10.676',0.410
'0:10.678',0.395
'0:10.680',0.425
'0:10.682',0.480
'0:10.684',0.590
'0:10.686',0.585
'0:10.688',0.610
'0:10.690',0.560
'0:10.692',0.480
'0:10.694',0.400
'0:10.696',0.410
'0:10.698',0.395
'0:10.700',0.445
'0:10.702',0.520
'0:10.704',0.590
'0:10.706',0.595
'0:10.708',0.635
'0:10.710',0.580
'0:10.712',0.535
'0:10.714',0.460
'0:10.716',0.435
'0:10.718',0.385
'0:10.720',0.430
'0:10.722',0.495
'0:10.724',0.595
'0:10.726',0.600
'0:10.728',0.600
'0:10.730',0.595
'0:10.732',0.530
'0:10.734',0.440
'0:10.736',0.420
'0:10.738',0.390
'0:10.740',0.445
'0:10.742',0.500
'0:10.744',0.555
'0:10.746',0.575
'0:10.748',0.595
'0:10.750',0.510
'0:10.752',0.460
'0:10.754',0.415
'0:10.756',0.380
'0:10.758',0.340
'0:10.760',0.365
'0:10.762',0.405
'0:10.764',0.475
'0:10.766',0.510
'0:10.768',0.510
'0:10.770',0.470
'0:10.772',0.380
'0:10.774',0.345
'0:10.776',0.315
'0:10.778',0.300
'0:10.780',0.365
'0:10.782',0.420
'0:10.784',0.465
'0:10.786',0.500
'0:10.788',0.495
'0:10.790',0.470
'0:10.792',0.385
'0:10.794',0.345
'0:10.796',0.285
'0:10.798',0.280
'0:10.800',0.335
'0:10.802',0.385
'0:10.804',0.435
'0:10.806',0.425
'0:10.808',0.405
'0:10.810',0.385
'0:10.812',0.285
'0:10.814',0.270
'0:10.816',0.275
'0:10.818',0.385
'0:10.820',0.535
'0:10.822',0.715
'0:10.824',0.855
'0:10.826',0.985
'0:10.828',1.090
'0:10.830',1.085
'0:10.832',0.990
'0:10.834',0.860
'0:10.836',0.715
'0:10.838',0.600
'0:10.840',0.610
'0:10.842',0.570
'0:10.844',0.450
'0:10.846',0.340
'0:10.848',0.165
'0:10.850',0.065
'0:10.852',0.015
'0:10.854',-0.015
'0:10.856',0.000
'0:10.858',0.005
'0:10.860',0.085
'0:10.862',0.180
'0:10.864',0.235
'0:10.866',0.325
'0:10.868',0.355
'0:10.870',0.310
'0:10.872',0.260
'0:10.874',0.270
'0:10.876',0.235
'0:10.878',0.250
'0:10.880',0.325
'0:10.882',0.440
'0:10.884',0.460
'0:10.886',0.505
'0:10.888',0.465
'0:10.890',0.415
'0:10.892',0.345
'0:10.894',0.295
'0:10.896',0.290
'0:10.898',0.315
'0:10.900',0.375
'0:10.902',0.470
'0:10.904',0.485
'0:10.906',0.505
'0:10.908',0.475
'0:10.910',0.445
'0:10.912',0.360
'0:10.914',0.345
'0:10.916',0.315
'0:10.918',0.360
'0:10.920',0.400
'0:10.922',0.510
'0:10.924',0.500
'0:10.926',0.525
'0:10.928',0.520
'0:10.930',0.460
'0:10.932',0.365
'0:10.934',0.355
'0:10.936',0.330
'0:10.938',0.370
'0:10.940',0.430
'0:10.942',0.515
'0:10.944',0.565
'0:10.946',0.585
'0:10.948',0.565
'0:10.950',0.505
'0:10.952',0.400
'0:10.954',0.385
'0:10.956',0.385
'0:10.958',0.410
'0:10.960',0.470
'0:10.962',0.555
'0:10.964',0.590
'0:10.966',0.620
'0:10.968',0.610
'0:10.970',0.550
'0:10.972',0.500
'0:10.974',0.425
'0:10.976',0.445
'0:10.978',0.490
'0:10.980',0.535
'0:10.982',0.655
'0:10.984',0.670
'0:10.986',0.695
'0:10.988',0.665
'0:10.990',0.620
'0:10.992',0.585
'0:10.994',0.575
'0:10.996',0.570
'0:10.998',0.605
'0:11.000',0.690
'0:11.002',0.745
'0:11.004',0.790
'0:11.006',0.800
'0:11.008',0.775
'0:11.010',0.665
'0:11.012',0.645
'0:11.014',0.600
'0:11.016',0.585
'0:11.018',0.610
'0:11.020',0.655
'0:11.022',0.740
'0:11.024',0.785
'0:11.026',0.740
'0:11.028',0.720
'0:11.030',0.680
'0:11.032',0.595
'0:11.034',0.540
'0:11.036',0.525
'0:11.038',0.530
'0:11.040',0.605
'0:11.042',0.675
'0:11.044',0.685
'0:11.046',0.635
'0:11.048',0.580
'0:11.050',0.500
'0:11.052',0.435
'0:11.054',0.380
'0:11.056',0.350
'0:11.058',0.425
'0:11.060',0.485
'0:11.062',0.515
'0:11.064',0.510
'0:11.066',0.505
'0:11.068',0.475
'0:11.070',0.375
'0:11.072',0.325
'0:11.074',0.280
'0:11.076',0.250
'0:11.078',0.305
'0:11.080',0.390
'0:11.082',0.450
'0:11.084',0.465
'0:11.086',0.450
'0:11.088',0.410
'0:11.090',0.310
'0:11.092',0.255
'0:11.094',0.200
'0:11.096',0.255
'0:11.098',0.310
'0:11.100',0.385
'0:11.102',0.410
'0:11.104',0.455
'0:11.106',0.435
'0:11.108',0.390
'0:11.110',0.310
'0:11.112',0.255
'0:11.114',0.230
'0:11.116',0.215
'0:11.118',0.305
'0:11.120',0.335
'0:11.122',0.395
'0:11.124',0.430
'0:11.126',0.435
'0:11.128',0.370
'0:11.130',0.295
'0:11.132',0.275
'0:11.134',0.235
'0:11.136',0.265
'0:11.138',0.290
'0:11.140',0.380
'0:11.142',0.385
'0:11.144',0.455
'0:11.146',0.420
'0:11.148',0.375
'0:11.150',0.280
'0:11.152',0.265
'0:11.154',0.240
'0:11.156',0.225
'0:11.158',0.285
'0:11.160',0.370
'0:11.162',0.410
'0:11.164',0.405
'0:11.166',0.405
'0:11.168',0.375
'0:11.170',0.260
'0:11.172',0.205
'0:11.174',0.205
'0:11.176',0.255
'0:11.178',0.275
'0:11.180',0.370
'0:11.182',0.380
'0:11.184',0.415
'0:11.186',0.405
'0:11.188',0.350
'0:11.190',0.215
'0:11.192',0.230
'0:11.194',0.195
'0:11.196',0.200
'0:11.198',0.265
'0:11.200',0.355
'0:11.202',0.390
'0:11.204',0.405
'0:11.206',0.355
'0:11.208',0.325
'0:11.210',0.250
'0:11.212',0.225
'0:11.214',0.195
'0:11.216',0.205
'0:11.218',0.265
'0:11.220',0.355
'0:11.222',0.365
'0:11.224',0.390
'0:11.226',0.385
'0:11.228',0.310
'0:11.230',0.235
'0:11.232',0.220
'0:11.234',0.205
'0:11.236',0.225
'0:11.238',0.300
'0:11.240',0.385
'0:11.242',0.405
'0:11.244',0.460
'0:11.246',0.400
'0:11.248',0.340
'0:11.250',0.245
'0:11.252',0.245
'0:11.254',0.195
'0:11.256',0.205
'0:11.258',0.275
'0:11.260',0.370
'0:11.262',0.395
'0:11.264',0.405
'0:11.266',0.375
'0:11.268',0.320
'0:11.270',0.210
'0:11.272',0.190
'0:11.274',0.180
'0:11.276',0.190
'0:11.278',0.265
'0:11.280',0.315
'0:11.282',0.350
'0:11.284',0.355
'0:11.286',0.310
'0:11.288',0.230
'0:11.290',0.170
'0:11.292',0.125
'0:11.294',0.115
'0:11.296',0.145
'0:11.298',0.230
'0:11.300',0.285
'0:11.302',0.310
'0:11.304',0.315
'0:11.306',0.260
'0:11.308',0.215
'0:11.310',0.140
'0:11.312',0.120
'0:11.314',0.105
'0:11.316',0.135
'0:11.318',0.215
'0:11.320',0.290
'0:11.322',0.315
'0:11.324',0.315
'0:11.326',0.260
'0:11.328',0.170
'0:11.330',0.100
'0:11.332',0.070
'0:11.334',0.045
'0:11.336',0.050
'0:11.338',0.110
'0:11.340',0.200
'0:11.342',0.200
'0:11.344',0.215
'0:11.346',0.195
'0:11.348',0.265
'0:11.350',0.295
'0:11.352',0.375
'0:11.354',0.460
'0:11.356',0.625
'0:11.358',0.825
'0:11.360',0.935
'0:11.362',0.970
'0:11.364',0.880
'0:11.366',0.675
'0:11.368',0.450
'0:11.370',0.355
'0:11.372',0.225
'0:11.374',0.085
'0:11.376',-0.025
'0:11.378',-0.085
'0:11.380',-0.130
'0:11.382',-0.045
'0:11.384',-0.040
'0:11.386',-0.055
'0:11.388',-0.120
'0:11.390',-0.155
'0:11.392',-0.160
'0:11.394',-0.125
'0:11.396',-0.020
'0:11.398',0.085
'0:11.400',0.150
'0:11.402',0.230
'0:11.404',0.230
'0:11.406',0.210
'0:11.408',0.090
'0:11.410',0.100
'0:11.412',0.060
'0:11.414',0.055
'0:11.416',0.135
'0:11.418',0.230
'0:11.420',0.250
'0:11.422',0.290
'0:11.424',0.300
'0:11.426',0.245
'0:11.428',0.160
'0:11.430',0.130
'0:11.432',0.105
'0:11.434',0.100
'0:11.436',0.150
'0:11.438',0.255
'0:11.440',0.280
'0:11.442',0.295
'0:11.444',0.290
'0:11.446',0.255
'0:11.448',0.180
'0:11.450',0.150
'0:11.452',0.135
'0:11.454',0.140
'0:11.456',0.185
'0:11.458',0.265
'0:11.460',0.340
'0:11.462',0.340
'0:11.464',0.320
'0:11.466',0.275
'0:11.468',0.195
'0:11.470',0.170
'0:11.472',0.150
'0:11.474',0.175
'0:11.476',0.235
'0:11.478',0.335
'0:11.480',0.375
'0:11.482',0.380
'0:11.484',0.375
'0:11.486',0.310
'0:11.488',0.235
'0:11.490',0.210
'0:11.492',0.185
'0:11.494',0.225
'0:11.496',0.320
'0:11.498',0.415
'0:11.500',0.420
'0:11.502',0.445
'0:11.504',0.465
'0:11.506',0.415
'0:11.508',0.325
'0:11.510',0.315
'0:11.512',0.305
'0:11.514',0.350
'0:11.516',0.435
'0:11.518',0.515
'0:11.520',0.555
'0:11.522',0.615
'0:11.524',0.560
'0:11.526',0.525
'0:11.528',0.440
'0:11.530',0.420
'0:11.532',0.410
'0:11.534',0.460
'0:11.536',0.545
'0:11.538',0.625
'0:11.540',0.650
'0:11.542',0.685
'0:11.544',0.615
'0:11.546',0.555
'0:11.548',0.485
'0:11.550',0.445
'0:11.552',0.475
'0:11.554',0.485
'0:11.556',0.545
'0:11.558',0.635
'0:11.560',0.630
'0:11.562',0.630
'0:11.564',0.595
'0:11.566',0.515
'0:11.568',0.450
'0:11.570',0.395
'0:11.572',0.380
'0:11.574',0.390
'0:11.576',0.445
'0:11.578',0.510
'0:11.580',0.490
'0:11.582',0.505
'0:11.584',0.460
'0:11.586',0.395
'0:11.588',0.270
'0:11.590',0.280
'0:11.592',0.235
'0:11.594',0.275
'0:11.596',0.320
'0:11.598',0.395
'0:11.600',0.405
'0:11.602',0.430
'0:11.604',0.375
'0:11.606',0.290
'0:11.608',0.230
'0:11.610',0.185
'0:11.612',0.190
'0:11.614',0.225
'0:11.616',0.305
'0:11.618',0.360
'0:11.620',0.400
'0:11.622',0.395
'0:11.624',0.355
'0:11.626',0.300
'0:11.628',0.260
'0:11.630',0.250
'0:11.632',0.220
'0:11.634',0.275
'0:11.636',0.355
'0:11.638',0.420
'0:11.640',0.440
'0:11.642',0.450
'0:11.644',0.430
'0:11.646',0.335
'0:11.648',0.265
'0:11.650',0.265
'0:11.652',0.250
'0:11.654',0.320
'0:11.656',0.375
'0:11.658',0.445
'0:11.660',0.485
'0:11.662',0.460
'0:11.664',0.425
'0:11.666',0.360
'0:11.668',0.310
'0:11.670',0.315
'0:11.672',0.340
'0:11.674',0.375
'0:11.676',0.445
'0:11.678',0.510
'0:11.680',0.535
'0:11.682',0.515
'0:11.684',0.490
'0:11.686',0.410
'0:11.688',0.360
'0:11.690',0.345
'0:11.692',0.370
'0:11.694',0.425
'0:11.696',0.500
'0:11.698',0.530
'0:11.700',0.560
'0:11.702',0.565
'0:11.704',0.515
'0:11.706',0.450
'0:11.708',0.435
'0:11.710',0.395
'0:11.712',0.410
'0:11.714',0.460
'0:11.716',0.555
'0:11.718',0.585
'0:11.720',0.625
'0:11.722',0.595
'0:11.724',0.570
'0:11.726',0.495
'0:11.728',0.470
'0:11.730',0.450
'0:11.732',0.480
'0:11.734',0.515
'0:11.736',0.635
'0:11.738',0.640
'0:11.740',0.670
'0:11.742',0.655
'0:11.744',0.595
'0:11.746',0.550
'0:11.748',0.540
'0:11.750',0.515
'0:11.752',0.550
'0:11.754',0.610
'0:11.756',0.700
'0:11.758',0.720
'0:11.760',0.750
'0:11.762',0.730
'0:11.764',0.710
'0:11.766',0.645
'0:11.768',0.610
'0:11.770',0.585
'0:11.772',0.585
'0:11.774',0.660
'0:11.776',0.760
'0:11.778',0.785
'0:11.780',0.815
'0:11.782',0.795
'0:11.784',0.765
'0:11.786',0.690
'0:11.788',0.680
'0:11.790',0.650
'0:11.792',0.675
'0:11.794',0.735
'0:11.796',0.800
'0:11.798',0.805
'0:11.800',0.825
'0:11.802',0.800
'0:11.804',0.770
'0:11.806',0.715
'0:11.808',0.700
'0:11.810',0.700
'0:11.812',0.710
'0:11.814',0.760
'0:11.816',0.830
'0:11.818',0.840
'0:11.820',0.885
'0:11.822',0.860
'0:11.824',0.825
'0:11.826',0.755
'0:11.828',0.730
'0:11.830',0.725
'0:11.832',0.755
'0:11.834',0.820
'0:11.836',0.875
'0:11.838',0.895
'0:11.840',0.915
'0:11.842',0.900
'0:11.844',0.855
'0:11.846',0.800
'0:11.848',0.800
'0:11.850',0.775
'0:11.852',0.815
'0:11.854',0.880
'0:11.856',0.900
'0:11.858',0.910
'0:11.860',0.925
'0:11.862',0.890
'0:11.864',0.815
'0:11.866',0.775
'0:11.868',0.785
'0:11.870',0.805
'0:11.872',0.915
'0:11.874',1.070
'0:11.876',1.220
'0:11.878',1.365
'0:11.880',1.480
'0:11.882',1.555
'0:11.884',1.615
'0:11.886',1.580
'0:11.888',1.545
'0:11.890',1.460
'0:11.892',1.320
'0:11.894',1.320
'0:11.896',1.310
'0:11.898',1.185
'0:11.900',1.075
'0:11.902',0.890
'0:11.904',0.720
'0:11.906',0.690
'0:11.908',0.670
'0:11.910',0.695
'0:11.912',0.750
'0:11.914',0.815
'0:11.916',0.875
'0:11.918',0.940
'0:11.920',0.995
'0:11.922',0.990
'0:11.924',0.975
'0:11.926',0.985
'0:11.928',0.965
'0:11.930',1.010
'0:11.932',1.095
'0:11.934',1.160
'0:11.936',1.185
'0:11.938',1.200
'0:11.940',1.230
'0:11.942',1.215
'0:11.944',1.160
'0:11.946',1.140
'0:11.948',1.135
'0:11.950',1.145
'0:11.952',1.180
'0:11.954',1.240
'0:11.956',1.265
'0:11.958',1.285
'0:11.960',1.300
'0:11.962',1.280
'0:11.964',1.235
'0:11.966',1.235
'0:11.968',1.200
'0:11.970',1.210
'0:11.972',1.245
'0:11.974',1.320
'0:11.976',1.335
'0:11.978',1.355
'0:11.980',1.375
'0:11.982',1.365
'0:11.984',1.305
'0:11.986',1.295
'0:11.988',1.285
'0:11.990',1.305
'0:11.992',1.325
'0:11.994',1.385
'0:11.996',1.395
'0:11.998',1.435
'0:12.000',1.450
'0:12.002',1.420
'0:12.004',1.370
'0:12.006',1.380
'0:12.008',1.380
'0:12.010',1.390
'0:12.012',1.440
'0:12.014',1.480
'0:12.016',1.495
'0:12.018',1.520
'0:12.020',1.540
'0:12.022',1.520
'0:12.024',1.475
'0:12.026',1.475
'0:12.028',1.455
'0:12.030',1.480
'0:12.032',1.540
'0:12.034',1.585
'0:12.036',1.595
'0:12.038',1.630
'0:12.040',1.655
'0:12.042',1.625
'0:12.044',1.605
'0:12.046',1.635
'0:12.048',1.610
'0:12.050',1.620
'0:12.052',1.650
'0:12.054',1.725
'0:12.056',1.705
'0:12.058',1.745
'0:12.060',1.745
'0:12.062',1.720
'0:12.064',1.700
'0:12.066',1.710
'0:12.068',1.685
'0:12.070',1.695
'0:12.072',1.715
'0:12.074',1.745
'0:12.076',1.730
'0:12.078',1.765
'0:12.080',1.750
'0:12.082',1.730
'0:12.084',1.705
'0:12.086',1.695
'0:12.088',1.660
'0:12.090',1.655
'0:12.092',1.685
'0:12.094',1.685
'0:12.096',1.650
'0:12.098',1.670
'0:12.100',1.670
'0:12.102',1.635
'0:12.104',1.595
'0:12.106',1.590
'0:12.108',1.540
'0:12.110',1.565
'0:12.112',1.570
'0:12.114',1.560
'0:12.116',1.555
'0:12.118',1.575
'0:12.120',1.580
'0:12.122',1.540
'0:12.124',1.510
'0:12.126',1.505
'0:12.128',1.490
'0:12.130',1.500
'0:12.132',1.510
'0:12.134',1.510
'0:12.136',1.500
'0:12.138',1.540
'0:12.140',1.540
'0:12.142',1.515
'0:12.144',1.485
'0:12.146',1.500
'0:12.148',1.470
'0:12.150',1.475
'0:12.152',1.500
'0:12.154',1.505
'0:12.156',1.505
'0:12.158',1.550
'0:12.160',1.545
'0:12.162',1.540
'0:12.164',1.545
'0:12.166',1.515
'0:12.168',1.485
'0:12.170',1.515
'0:12.172',1.525
'0:12.174',1.540
'0:12.176',1.535
'0:12.178',1.550
'0:12.180',1.550
'0:12.182',1.545
'0:12.184',1.540
'0:12.186',1.545
'0:12.188',1.515
'0:12.190',1.545
'0:12.192',1.535
'0:12.194',1.535
'0:12.196',1.445
'0:12.198',1.565
'0:12.200',1.550
'0:12.202',1.545
'0:12.204',1.530
'0:12.206',1.535
'0:12.208',1.530
'0:12.210',1.530
'0:12.212',1.535
'0:12.214',1.425
'0:12.216',1.345
'0:12.218',1.470
'0:12.220',1.560
'0:12.222',1.565
'0:12.224',1.565
'0:12.226',1.545
'0:12.228',1.515
'0:12.230',1.530
'0:12.232',1.525
'0:12.234',1.335
'0:12.236',1.285
'0:12.238',1.450
'0:12.240',1.555
'0:12.242',1.550
'0:12.244',1.555
'0:12.246',1.545
'0:12.248',1.520
'0:12.250',1.555
'0:12.252',1.490
'0:12.254',1.280
'0:12.256',1.260
'0:12.258',1.420
'0:12.260',1.545
'0:12.262',1.545
'0:12.264',1.560
'0:12.266',1.535
'0:12.268',1.540
'0:12.270',1.550
'0:12.272',1.420
'0:12.274',1.230
'0:12.276',1.230
'0:12.278',1.420
'0:12.280',1.575
'0:12.282',1.580
'0:12.284',1.595
'0:12.286',1.565
'0:12.288',1.550
'0:12.290',1.560
'0:12.292',1.415
'0:12.294',1.220
'0:12.296',1.230
'0:12.298',1.405
'0:12.300',1.540
'0:12.302',1.585
'0:12.304',1.595
'0:12.306',1.570
'0:12.308',1.545
'0:12.310',1.540
'0:12.312',1.375
'0:12.314',1.200
'0:12.316',1.220
'0:12.318',1.385
'0:12.320',1.555
'0:12.322',1.565
'0:12.324',1.575
'0:12.326',1.520
'0:12.328',1.530
'0:12.330',1.530
'0:12.332',1.300
'0:12.334',1.130
'0:12.336',1.155
'0:12.338',1.330
'0:12.340',1.525
'0:12.342',1.535
'0:12.344',1.540
'0:12.346',1.510
'0:12.348',1.495
'0:12.350',1.515
'0:12.352',1.300
'0:12.354',1.165
'0:12.356',1.255
'0:12.358',1.425
'0:12.360',1.545
'0:12.362',1.525
'0:12.364',1.525
'0:12.366',1.515
'0:12.368',1.500
'0:12.370',1.495
'0:12.372',1.295
'0:12.374',1.130
'0:12.376',1.185
'0:12.378',1.355
'0:12.380',1.480
'0:12.382',1.495
'0:12.384',1.500
'0:12.386',1.515
'0:12.388',1.570
'0:12.390',1.640
'0:12.392',1.510
'0:12.394',1.465
'0:12.396',1.670
'0:12.398',1.940
'0:12.400',2.000
'0:12.402',2.005
'0:12.404',1.965
'0:12.406',1.870
'0:12.408',1.785
'0:12.410',1.750
'0:12.412',1.715
'0:12.414',1.640
'0:12.416',1.550
'0:12.418',1.410
'0:12.420',1.335
'0:12.422',1.315
'0:12.424',1.315
'0:12.426',1.310
'0:12.428',1.325
'0:12.430',1.350
'0:12.432',1.355
'0:12.434',1.365
'0:12.436',1.425
'0:12.438',1.445
'0:12.440',1.475
'0:12.442',1.460
'0:12.444',1.490
'0:12.446',1.465
'0:12.448',1.510
'0:12.450',1.530
'0:12.452',1.540
'0:12.454',1.540
'0:12.456',1.565
'0:12.458',1.580
'0:12.460',1.555
'0:12.462',1.525
'0:12.464',1.540
'0:12.466',1.530
'0:12.468',1.545
'0:12.470',1.560
'0:12.472',1.555
'0:12.474',1.585
'0:12.476',1.610
'0:12.478',1.605
'0:12.480',1.605
'0:12.482',1.570
'0:12.484',1.575
'0:12.486',1.550
'0:12.488',1.565
'0:12.490',1.600
'0:12.492',1.615
'0:12.494',1.630
'0:12.496',1.650
'0:12.498',1.640
'0:12.500',1.615
'0:12.502',1.595
'0:12.504',1.580
'0:12.506',1.585
'0:12.508',1.605
'0:12.510',1.630
'0:12.512',1.645
'0:12.514',1.665
'0:12.516',1.690
'0:12.518',1.660
'0:12.520',1.635
'0:12.522',1.630
'0:12.524',1.600
'0:12.526',1.610
'0:12.528',1.645
'0:12.530',1.675
'0:12.532',1.695
'0:12.534',1.720
'0:12.536',1.735
'0:12.538',1.695
'0:12.540',1.690
'0:12.542',1.670
'0:12.544',1.670
'0:12.546',1.680
'0:12.548',1.725
'0:12.550',1.765
'0:12.552',1.775
'0:12.554',1.785
'0:12.556',1.815
'0:12.558',1.785
'0:12.560',1.765
'0:12.562',1.760
'0:12.564',1.765
'0:12.566',1.745
'0:12.568',1.785
'0:12.570',1.845
'0:12.572',1.850
'0:12.574',1.875
'0:12.576',1.870
'0:12.578',1.865
'0:12.580',1.815
'0:12.582',1.785
'0:12.584',1.755
'0:12.586',1.805
'0:12.588',1.830
'0:12.590',1.845
'0:12.592',1.865
'0:12.594',1.890
'0:12.596',1.870
'0:12.598',1.825
'0:12.600',1.755
'0:12.602',1.735
'0:12.604',1.700
'0:12.606',1.720
'0:12.608',1.745
'0:12.610',1.795
'0:12.612',1.770
'0:12.614',1.795
'0:12.616',1.770
'0:12.618',1.690
'0:12.620',1.620
'0:12.622',1.615
'0:12.624',1.580
'0:12.626',1.565
'0:12.628',1.615
'0:12.630',1.665
'0:12.632',1.655
'0:12.634',1.670
'0:12.636',1.660
'0:12.638',1.610
'0:12.640',1.540
'0:12.642',1.520
'0:12.644',1.470
'0:12.646',1.500
'0:12.648',1.560
'0:12.650',1.605
'0:12.652',1.595
'0:12.654',1.600
'0:12.656',1.595
'0:12.658',1.550
'0:12.660',1.475
'0:12.662',1.465
'0:12.664',1.440
'0:12.666',1.465
'0:12.668',1.510
'0:12.670',1.550
'0:12.672',1.575
'0:12.674',1.590
'0:12.676',1.550
'0:12.678',1.520
'0:12.680',1.470
'0:12.682',1.445
'0:12.684',1.420
'0:12.686',1.460
'0:12.688',1.505
'0:12.690',1.575
'0:12.692',1.575
'0:12.694',1.595
'0:12.696',1.550
'0:12.698',1.520
'0:12.700',1.450
'0:12.702',1.450
'0:12.704',1.405
'0:12.706',1.435
'0:12.708',1.510
'0:12.710',1.565
'0:12.712',1.575
'0:12.714',1.580
'0:12.716',1.555
'0:12.718',1.485
'0:12.720',1.440
'0:12.722',1.395
'0:12.724',1.405
'0:12.726',1.425
'0:12.728',1.470
'0:12.730',1.530
'0:12.732',1.550
'0:12.734',1.540
'0:12.736',1.515
'0:12.738',1.465
'0:12.740',1.425
'0:12.742',1.380
'0:12.744',1.365
'0:12.746',1.400
'0:12.748',1.450
'0:12.750',1.495
'0:12.752',1.520
'0:12.754',1.525
'0:12.756',1.470
'0:12.758',1.430
'0:12.760',1.380
'0:12.762',1.360
'0:12.764',1.340
'0:12.766',1.390
'0:12.768',1.450
'0:12.770',1.475
'0:12.772',1.485
'0:12.774',1.485
'0:12.776',1.450
'0:12.778',1.400
'0:12.780',1.310
'0:12.782',1.285
'0:12.784',1.295
'0:12.786',1.355
'0:12.788',1.405
'0:12.790',1.445
'0:12.792',1.455
'0:12.794',1.460
'0:12.796',1.430
'0:12.798',1.345
'0:12.800',1.300
'0:12.802',1.280
'0:12.804',1.265
'0:12.806',1.330
'0:12.808',1.390
'0:12.810',1.455
'0:12.812',1.465
'0:12.814',1.445
'0:12.816',1.395
'0:12.818',1.305
'0:12.820',1.280
'0:12.822',1.255
'0:12.824',1.240
'0:12.826',1.285
'0:12.828',1.360
'0:12.830',1.395
'0:12.832',1.395
'0:12.834',1.370
'0:12.836',1.330
'0:12.838',1.245
'0:12.840',1.210
'0:12.842',1.195
'0:12.844',1.195
'0:12.846',1.225
'0:12.848',1.280
'0:12.850',1.325
'0:12.852',1.330
'0:12.854',1.300
'0:12.856',1.260
'0:12.858',1.180
'0:12.860',1.145
'0:12.862',1.110
'0:12.864',1.125
'0:12.866',1.180
'0:12.868',1.265
'0:12.870',1.255
'0:12.872',1.295
'0:12.874',1.265
'0:12.876',1.200
'0:12.878',1.125
'0:12.880',1.095
'0:12.882',1.065
'0:12.884',1.070
'0:12.886',1.115
'0:12.888',1.170
'0:12.890',1.180
'0:12.892',1.210
'0:12.894',1.180
'0:12.896',1.120
'0:12.898',1.065
'0:12.900',1.080
'0:12.902',1.110
'0:12.904',1.210
'0:12.906',1.330
'0:12.908',1.460
'0:12.910',1.540
'0:12.912',1.635
'0:12.914',1.620
'0:12.916',1.525
'0:12.918',1.355
'0:12.920',1.205
'0:12.922',1.135
'0:12.924',1.135
'0:12.926',1.140
'0:12.928',1.110
'0:12.930',1.000
'0:12.932',0.940
'0:12.934',0.880
'0:12.936',0.820
'0:12.938',0.755
'0:12.940',0.755
'0:12.942',0.730
'0:12.944',0.750
'0:12.946',0.825
'0:12.948',0.915
'0:12.950',0.970
'0:12.952',1.020
'0:12.954',1.010
'0:12.956',0.955
'0:12.958',0.895
'0:12.960',0.905
'0:12.962',0.895
'0:12.964',0.950
'0:12.966',1.000
'0:12.968',1.050
'0:12.970',1.065
'0:12.972',1.085
'0:12.974',1.075
'0:12.976',1.000
'0:12.978',0.930
'0:12.980',0.905
'0:12.982',0.900
'0:12.984',0.910
'0:12.986',0.980
'0:12.988',1.050
'0:12.990',1.065
'0:12.992',1.060
'0:12.994',1.010
'0:12.996',0.945
'0:12.998',0.900
'0:13.000',0.885
'0:13.002',0.885
'0:13.004',0.895
'0:13.006',0.960
'0:13.008',1.020
'0:13.010',1.030
'0:13.012',1.045
'0:13.014',1.005
'0:13.016',0.935
'0:13.018',0.870
'0:13.020',0.850
'0:13.022',0.840
'0:13.024',0.885
'0:13.026',0.945
'0:13.028',1.005
'0:13.030',1.040
'0:13.032',1.030
'0:13.034',0.975
'0:13.036',0.900
'0:13.038',0.855
'0:13.040',0.835
'0:13.042',0.840
'0:13.044',0.880
'0:13.046',0.945
'0:13.048',0.980
'0:13.050',1.010
'0:13.052',1.020
'0:13.054',0.980
'0:13.056',0.915
'0:13.058',0.880
'0:13.060',0.875
'0:13.062',0.870
'0:13.064',0.925
'0:13.066',1.020
'0:13.068',1.050
'0:13.070',1.070
'0:13.072',1.075
'0:13.074',1.030
'0:13.076',0.965
'0:13.078',0.945
'0:13.080',0.910
'0:13.082',0.920
'0:13.084',0.975
'0:13.086',1.055
'0:13.088',1.090
'0:13.090',1.110
'0:13.092',1.100
'0:13.094',1.050
'0:13.096',0.965
'0:13.098',0.895
'0:13.100',0.880
'0:13.102',0.885
'0:13.104',0.910
'0:13.106',1.005
'0:13.108',1.010
'0:13.110',1.015
'0:13.112',1.000
'0:13.114',0.930
'0:13.116',0.850
'0:13.118',0.810
'0:13.120',0.760
'0:13.122',0.745
'0:13.124',0.790
'0:13.126',0.855
'0:13.128',0.880
'0:13.130',0.870
'0:13.132',0.835
'0:13.134',0.775
'0:13.136',0.675
'0:13.138',0.625
'0:13.140',0.595
'0:13.142',0.590
'0:13.144',0.625
'0:13.146',0.695
'0:13.148',0.725
'0:13.150',0.740
'0:13.152',0.705
'0:13.154',0.645
'0:13.156',0.560
'0:13.158',0.515
'0:13.160',0.490
'0:13.162',0.505
'0:13.164',0.550
'0:13.166',0.635
'0:13.168',0.655
'0:13.170',0.655
'0:13.172',0.635
'0:13.174',0.560
'0:13.176',0.480
'0:13.178',0.460
'0:13.180',0.435
'0:13.182',0.435
'0:13.184',0.495
'0:13.186',0.565
'0:13.188',0.590
'0:13.190',0.615
'0:13.192',0.590
'0:13.194',0.525
'0:13.196',0.445
'0:13.198',0.450
'0:13.200',0.410
'0:13.202',0.440
'0:13.204',0.485
'0:13.206',0.565
'0:13.208',0.580
'0:13.210',0.580
'0:13.212',0.560
'0:13.214',0.505
'0:13.216',0.420
'0:13.218',0.390
'0:13.220',0.375
'0:13.222',0.395
'0:13.224',0.460
'0:13.226',0.530
'0:13.228',0.545
'0:13.230',0.535
'0:13.232',0.505
'0:13.234',0.460
'0:13.236',0.395
'0:13.238',0.370
'0:13.240',0.345
'0:13.242',0.360
'0:13.244',0.425
'0:13.246',0.495
'0:13.248',0.500
'0:13.250',0.520
'0:13.252',0.490
'0:13.254',0.410
'0:13.256',0.340
'0:13.258',0.300
'0:13.260',0.300
'0:13.262',0.335
'0:13.264',0.385
'0:13.266',0.455
'0:13.268',0.475
'0:13.270',0.470
'0:13.272',0.440
'0:13.274',0.370
'0:13.276',0.310
'0:13.278',0.280
'0:13.280',0.275
'0:13.282',0.300
'0:13.284',0.370
'0:13.286',0.425
'0:13.288',0.440
'0:13.290',0.440
'0:13.292',0.405
'0:13.294',0.370
'0:13.296',0.270
'0:13.298',0.245
'0:13.300',0.240
'0:13.302',0.280
'0:13.304',0.340
'0:13.306',0.400
'0:13.308',0.415
'0:13.310',0.430
'0:13.312',0.385
'0:13.314',0.310
'0:13.316',0.250
'0:13.318',0.225
'0:13.320',0.235
'0:13.322',0.260
'0:13.324',0.325
'0:13.326',0.375
'0:13.328',0.375
'0:13.330',0.370
'0:13.332',0.310
'0:13.334',0.255
'0:13.336',0.205
'0:13.338',0.180
'0:13.340',0.180
'0:13.342',0.225
'0:13.344',0.280
'0:13.346',0.320
'0:13.348',0.310
'0:13.350',0.330
'0:13.352',0.265
'0:13.354',0.190
'0:13.356',0.120
'0:13.358',0.120
'0:13.360',0.105
'0:13.362',0.145
'0:13.364',0.225
'0:13.366',0.240
'0:13.368',0.255
'0:13.370',0.255
'0:13.372',0.215
'0:13.374',0.135
'0:13.376',0.080
'0:13.378',0.055
'0:13.380',0.050
'0:13.382',0.125
'0:13.384',0.160
'0:13.386',0.210
'0:13.388',0.230
'0:13.390',0.220
'0:13.392',0.165
'0:13.394',0.085
'0:13.396',0.050
'0:13.398',0.040
'0:13.400',0.010
'0:13.402',0.045
'0:13.404',0.100
'0:13.406',0.135
'0:13.408',0.150
'0:13.410',0.135
'0:13.412',0.095
'0:13.414',0.005
'0:13.416',0.010
'0:13.418',0.050
'0:13.420',0.130
'0:13.422',0.270
'0:13.424',0.410
'0:13.426',0.495
'0:13.428',0.605
'0:13.430',0.635
'0:13.432',0.565
'0:13.434',0.405
'0:13.436',0.275
'0:13.438',0.140
'0:13.440',0.110
'0:13.442',0.115
'0:13.444',0.100
'0:13.446',0.020
'0:13.448',-0.095
'0:13.450',-0.200
'0:13.452',-0.240
'0:13.454',-0.300
'0:13.456',-0.310
'0:13.458',-0.305
'0:13.460',-0.265
'0:13.462',-0.210
'0:13.464',-0.140
'0:13.466',-0.070
'0:13.468',-0.010
'0:13.470',0.000
'0:13.472',-0.045
'0:13.474',-0.105
'0:13.476',-0.110
'0:13.478',-0.110
'0:13.480',-0.095
'0:13.482',-0.020
'0:13.484',0.050
'0:13.486',0.075
'0:13.488',0.115
'0:13.490',0.075
'0:13.492',0.015
'0:13.494',-0.060
'0:13.496',-0.090
'0:13.498',-0.105
'0:13.500',-0.080
'0:13.502',-0.020
'0:13.504',0.055
'0:13.506',0.060
'0:13.508',0.080
'0:13.510',0.030
'0:13.512',-0.025
'0:13.514',-0.095
'0:13.516',-0.105
'0:13.518',-0.130
'0:13.520',-0.090
'0:13.522',-0.020
'0:13.524',0.045
'0:13.526',0.055
'0:13.528',0.060
'0:13.530',0.025
'0:13.532',-0.030
'0:13.534',-0.085
'0:13.536',-0.110
'0:13.538',-0.130
'0:13.540',-0.090
'0:13.542',-0.045
'0:13.544',0.030
'0:13.546',0.040
'0:13.548',0.065
'0:13.550',0.015
'0:13.552',-0.045
'0:13.554',-0.100
'0:13.556',-0.115
'0:13.558',-0.135
'0:13.560',-0.100
'0:13.562',-0.015
'0:13.564',0.045
'0:13.566',0.060
'0:13.568',0.080
'0:13.570',0.055
'0:13.572',-0.010
'0:13.574',-0.070
'0:13.576',-0.085
'0:13.578',-0.080
'0:13.580',-0.035
'0:13.582',0.030
'0:13.584',0.100
'0:13.586',0.120
'0:13.588',0.135
'0:13.590',0.100
'0:13.592',0.035
'0:13.594',0.005
'0:13.596',-0.005
'0:13.598',0.000
'0:13.600',0.040
'0:13.602',0.120
'0:13.604',0.160
'0:13.606',0.190
'0:13.608',0.190
'0:13.610',0.150
'0:13.612',0.075
'0:13.614',0.015
'0:13.616',0.000
'0:13.618',0.000
'0:13.620',0.025
'0:13.622',0.070
'0:13.624',0.135
'0:13.626',0.145
'0:13.628',0.135
'0:13.630',0.080
'0:13.632',-0.015
'0:13.634',-0.070
'0:13.636',-0.095
'0:13.638',-0.110
'0:13.640',-0.075
'0:13.642',-0.020
'0:13.644',-0.020
'0:13.646',0.005
'0:13.648',0.005
'0:13.650',-0.075
'0:13.652',-0.160
'0:13.654',-0.205
'0:13.656',-0.250
'0:13.658',-0.270
'0:13.660',-0.230
'0:13.662',-0.145
'0:13.664',-0.155
'0:13.666',-0.135
'0:13.668',-0.140
'0:13.670',-0.200
'0:13.672',-0.285
'0:13.674',-0.320
'0:13.676',-0.335
'0:13.678',-0.340
'0:13.680',-0.290
'0:13.682',-0.245
'0:13.684',-0.235
'0:13.686',-0.210
'0:13.688',-0.225
'0:13.690',-0.275
'0:13.692',-0.340
'0:13.694',-0.365
'0:13.696',-0.385
'0:13.698',-0.390
'0:13.700',-0.350
'0:13.702',-0.285
'0:13.704',-0.245
'0:13.706',-0.225
'0:13.708',-0.250
'0:13.710',-0.305
'0:13.712',-0.370
'0:13.714',-0.405
'0:13.716',-0.435
'0:13.718',-0.425
'0:13.720',-0.380
'0:13.722',-0.285
'0:13.724',-0.270
'0:13.726',-0.255
'0:13.728',-0.280
'0:13.730',-0.325
'0:13.732',-0.370
'0:13.734',-0.420
'0:13.736',-0.440
'0:13.738',-0.410
'0:13.740',-0.360
'0:13.742',-0.285
'0:13.744',-0.280
'0:13.746',-0.260
'0:13.748',-0.275
'0:13.750',-0.330
'0:13.752',-0.405
'0:13.754',-0.415
'0:13.756',-0.445
'0:13.758',-0.405
'0:13.760',-0.380
'0:13.762',-0.315
'0:13.764',-0.295
'0:13.766',-0.270
'0:13.768',-0.295
'0:13.770',-0.350
'0:13.772',-0.435
'0:13.774',-0.460
'0:13.776',-0.470
'0:13.778',-0.460
'0:13.780',-0.400
'0:13.782',-0.350
'0:13.784',-0.310
'0:13.786',-0.295
'0:13.788',-0.325
'0:13.790',-0.380
'0:13.792',-0.450
'0:13.794',-0.470
'0:13.796',-0.465
'0:13.798',-0.455
'0:13.800',-0.430
'0:13.802',-0.365
'0:13.804',-0.340
'0:13.806',-0.310
'0:13.808',-0.350
'0:13.810',-0.390
'0:13.812',-0.475
'0:13.814',-0.485
'0:13.816',-0.515
