'Elapsed time','ECG I'
'hh:mm:ss.mmm','mV'
'0:00.000',0.215
'0:00.002',0.240
'0:00.004',0.355
'0:00.006',0.415
'0:00.008',0.450
'0:00.010',0.480
'0:00.012',0.445
'0:00.014',0.440
'0:00.016',0.340
'0:00.018',0.330
'0:00.020',0.360
'0:00.022',0.450
'0:00.024',0.450
'0:00.026',0.485
'0:00.028',0.525
'0:00.030',0.500
'0:00.032',0.475
'0:00.034',0.435
'0:00.036',0.340
'0:00.038',0.390
'0:00.040',0.450
'0:00.042',0.420
'0:00.044',0.470
'0:00.046',0.520
'0:00.048',0.525
'0:00.050',0.465
'0:00.052',0.465
'0:00.054',0.465
'0:00.056',0.385
'0:00.058',0.355
'0:00.060',0.390
'0:00.062',0.450
'0:00.064',0.485
'0:00.066',0.530
'0:00.068',0.565
'0:00.070',0.535
'0:00.072',0.540
'0:00.074',0.485
'0:00.076',0.390
'0:00.078',0.410
'0:00.080',0.400
'0:00.082',0.430
'0:00.084',0.505
'0:00.086',0.510
'0:00.088',0.540
'0:00.090',0.500
'0:00.092',0.495
'0:00.094',0.510
'0:00.096',0.370
'0:00.098',0.360
'0:00.100',0.335
'0:00.102',0.465
'0:00.104',0.490
'0:00.106',0.590
'0:00.108',0.585
'0:00.110',0.565
'0:00.112',0.535
'0:00.114',0.530
'0:00.116',0.405
'0:00.118',0.380
'0:00.120',0.395
'0:00.122',0.490
'0:00.124',0.530
'0:00.126',0.610
'0:00.128',0.580
'0:00.130',0.570
'0:00.132',0.500
'0:00.134',0.505
'0:00.136',0.465
'0:00.138',0.510
'0:00.140',0.465
'0:00.142',0.530
'0:00.144',0.510
'0:00.146',0.575
'0:00.148',0.575
'0:00.150',0.600
'0:00.152',0.515
'0:00.154',0.505
'0:00.156',0.455
'0:00.158',0.500
'0:00.160',0.550
'0:00.162',0.565
'0:00.164',0.580
'0:00.166',0.615
'0:00.168',0.655
'0:00.170',0.645
'0:00.172',0.580
'0:00.174',0.550
'0:00.176',0.595
'0:00.178',0.550
'0:00.180',0.535
'0:00.182',0.565
'0:00.184',0.660
'0:00.186',0.690
'0:00.188',0.695
'0:00.190',0.705
'0:00.192',0.640
'0:00.194',0.660
'0:00.196',0.610
'0:00.198',0.620
'0:00.200',0.595
'0:00.202',0.660
'0:00.204',0.700
'0:00.206',0.730
'0:00.208',0.700
'0:00.210',0.690
'0:00.212',0.665
'0:00.214',0.615
'0:00.216',0.585
'0:00.218',0.610
'0:00.220',0.575
'0:00.222',0.685
'0:00.224',0.710
'0:00.226',0.710
'0:00.228',0.680
'0:00.230',0.675
'0:00.232',0.665
'0:00.234',0.500
'0:00.236',0.560
'0:00.238',0.590
'0:00.240',0.555
'0:00.242',0.620
'0:00.244',0.635
'0:00.246',0.650
'0:00.248',0.595
'0:00.250',0.555
'0:00.252',0.515
'0:00.254',0.490
'0:00.256',0.425
'0:00.258',0.425
'0:00.260',0.470
'0:00.262',0.520
'0:00.264',0.555
'0:00.266',0.545
'0:00.268',0.510
'0:00.270',0.505
'0:00.272',0.470
'0:00.274',0.380
'0:00.276',0.375
'0:00.278',0.315
'0:00.280',0.390
'0:00.282',0.480
'0:00.284',0.500
'0:00.286',0.485
'0:00.288',0.485
'0:00.290',0.440
'0:00.292',0.380
'0:00.294',0.415
'0:00.296',0.445
'0:00.298',0.365
'0:00.300',0.365
'0:00.302',0.400
'0:00.304',0.575
'0:00.306',0.490
'0:00.308',0.440
'0:00.310',0.445
'0:00.312',0.410
'0:00.314',0.310
'0:00.316',0.345
'0:00.318',0.400
'0:00.320',0.440
'0:00.322',0.430
'0:00.324',0.500
'0:00.326',0.510
'0:00.328',0.490
'0:00.330',0.460
'0:00.332',0.435
'0:00.334',0.350
'0:00.336',0.355
'0:00.338',0.340
'0:00.340',0.375
'0:00.342',0.375
'0:00.344',0.520
'0:00.346',0.460
'0:00.348',0.475
'0:00.350',0.460
'0:00.352',0.400
'0:00.354',0.355
'0:00.356',0.375
'0:00.358',0.365
'0:00.360',0.390
'0:00.362',0.380
'0:00.364',0.440
'0:00.366',0.435
'0:00.368',0.520
'0:00.370',0.450
'0:00.372',0.420
'0:00.374',0.355
'0:00.376',0.350
'0:00.378',0.375
'0:00.380',0.405
'0:00.382',0.460
'0:00.384',0.490
'0:00.386',0.525
'0:00.388',0.500
'0:00.390',0.455
'0:00.392',0.455
'0:00.394',0.355
'0:00.396',0.370
'0:00.398',0.350
'0:00.400',0.395
'0:00.402',0.400
'0:00.404',0.435
'0:00.406',0.620
'0:00.408',0.510
'0:00.410',0.445
'0:00.412',0.425
'0:00.414',0.310
'0:00.416',0.395
'0:00.418',0.365
'0:00.420',0.380
'0:00.422',0.430
'0:00.424',0.560
'0:00.426',0.545
'0:00.428',0.505
'0:00.430',0.440
'0:00.432',0.400
'0:00.434',0.375
'0:00.436',0.380
'0:00.438',0.390
'0:00.440',0.405
'0:00.442',0.450
'0:00.444',0.530
'0:00.446',0.515
'0:00.448',0.460
'0:00.450',0.460
'0:00.452',0.420
'0:00.454',0.355
'0:00.456',0.405
'0:00.458',0.365
'0:00.460',0.400
'0:00.462',0.440
'0:00.464',0.535
'0:00.466',0.520
'0:00.468',0.485
'0:00.470',0.480
'0:00.472',0.420
'0:00.474',0.320
'0:00.476',0.350
'0:00.478',0.410
'0:00.480',0.440
'0:00.482',0.475
'0:00.484',0.435
'0:00.486',0.515
'0:00.488',0.460
'0:00.490',0.475
'0:00.492',0.360
'0:00.494',0.365
'0:00.496',0.380
'0:00.498',0.390
'0:00.500',0.440
'0:00.502',0.525
'0:00.504',0.485
'0:00.506',0.530
'0:00.508',0.445
'0:00.510',0.430
'0:00.512',0.380
'0:00.514',0.365
'0:00.516',0.410
'0:00.518',0.370
'0:00.520',0.430
'0:00.522',0.455
'0:00.524',0.470
'0:00.526',0.495
'0:00.528',0.495
'0:00.530',0.410
'0:00.532',0.360
'0:00.534',0.395
'0:00.536',0.330
'0:00.538',0.395
'0:00.540',0.425
'0:00.542',0.510
'0:00.544',0.485
'0:00.546',0.500
'0:00.548',0.435
'0:00.550',0.485
'0:00.552',0.385
'0:00.554',0.330
'0:00.556',0.325
'0:00.558',0.315
'0:00.560',0.460
'0:00.562',0.475
'0:00.564',0.505
'0:00.566',0.480
'0:00.568',0.440
'0:00.570',0.440
'0:00.572',0.405
'0:00.574',0.420
'0:00.576',0.365
'0:00.578',0.440
'0:00.580',0.485
'0:00.582',0.470
'0:00.584',0.445
'0:00.586',0.465
'0:00.588',0.405
'0:00.590',0.425
'0:00.592',0.425
'0:00.594',0.375
'0:00.596',0.375
'0:00.598',0.370
'0:00.600',0.415
'0:00.602',0.505
'0:00.604',0.470
'0:00.606',0.460
'0:00.608',0.445
'0:00.610',0.430
'0:00.612',0.390
'0:00.614',0.385
'0:00.616',0.390
'0:00.618',0.420
'0:00.620',0.475
'0:00.622',0.465
'0:00.624',0.515
'0:00.626',0.495
'0:00.628',0.480
'0:00.630',0.425
'0:00.632',0.385
'0:00.634',0.355
'0:00.636',0.385
'0:00.638',0.385
'0:00.640',0.430
'0:00.642',0.530
'0:00.644',0.475
'0:00.646',0.460
'0:00.648',0.455
'0:00.650',0.520
'0:00.652',0.395
'0:00.654',0.365
'0:00.656',0.395
'0:00.658',0.400
'0:00.660',0.445
'0:00.662',0.500
'0:00.664',0.520
'0:00.666',0.495
'0:00.668',0.410
'0:00.670',0.445
'0:00.672',0.345
'0:00.674',0.360
'0:00.676',0.375
'0:00.678',0.450
'0:00.680',0.430
'0:00.682',0.480
'0:00.684',0.465
'0:00.686',0.525
'0:00.688',0.460
'0:00.690',0.435
'0:00.692',0.420
'0:00.694',0.385
'0:00.696',0.420
'0:00.698',0.420
'0:00.700',0.455
'0:00.702',0.465
'0:00.704',0.495
'0:00.706',0.480
'0:00.708',0.470
'0:00.710',0.415
'0:00.712',0.355
'0:00.714',0.375
'0:00.716',0.385
'0:00.718',0.415
'0:00.720',0.465
'0:00.722',0.510
'0:00.724',0.495
'0:00.726',0.530
'0:00.728',0.450
'0:00.730',0.410
'0:00.732',0.370
'0:00.734',0.380
'0:00.736',0.360
'0:00.738',0.400
'0:00.740',0.485
'0:00.742',0.525
'0:00.744',0.495
'0:00.746',0.500
'0:00.748',0.430
'0:00.750',0.450
'0:00.752',0.415
'0:00.754',0.400
'0:00.756',0.415
'0:00.758',0.465
'0:00.760',0.470
'0:00.762',0.495
'0:00.764',0.520
'0:00.766',0.470
'0:00.768',0.425
'0:00.770',0.405
'0:00.772',0.315
'0:00.774',0.365
'0:00.776',0.415
'0:00.778',0.465
'0:00.780',0.520
'0:00.782',0.540
'0:00.784',0.545
'0:00.786',0.485
'0:00.788',0.495
'0:00.790',0.435
'0:00.792',0.375
'0:00.794',0.375
'0:00.796',0.445
'0:00.798',0.455
'0:00.800',0.525
'0:00.802',0.605
'0:00.804',0.525
'0:00.806',0.530
'0:00.808',0.500
'0:00.810',0.395
'0:00.812',0.420
'0:00.814',0.415
'0:00.816',0.440
'0:00.818',0.445
'0:00.820',0.495
'0:00.822',0.545
'0:00.824',0.545
'0:00.826',0.575
'0:00.828',0.525
'0:00.830',0.440
'0:00.832',0.425
'0:00.834',0.420
'0:00.836',0.480
'0:00.838',0.430
'0:00.840',0.485
'0:00.842',0.520
'0:00.844',0.530
'0:00.846',0.465
'0:00.848',0.435
'0:00.850',0.360
'0:00.852',0.350
'0:00.854',0.385
'0:00.856',0.420
'0:00.858',0.435
'0:00.860',0.465
'0:00.862',0.460
'0:00.864',0.465
'0:00.866',0.460
'0:00.868',0.405
'0:00.870',0.410
'0:00.872',0.415
'0:00.874',0.385
'0:00.876',0.415
'0:00.878',0.440
'0:00.880',0.515
'0:00.882',0.495
'0:00.884',0.490
'0:00.886',0.430
'0:00.888',0.470
'0:00.890',0.365
'0:00.892',0.405
'0:00.894',0.375
'0:00.896',0.390
'0:00.898',0.425
'0:00.900',0.455
'0:00.902',0.525
'0:00.904',0.525
'0:00.906',0.435
'0:00.908',0.375
'0:00.910',0.360
'0:00.912',0.365
'0:00.914',0.365
'0:00.916',0.390
'0:00.918',0.360
'0:00.920',0.455
'0:00.922',0.490
'0:00.924',0.480
'0:00.926',0.480
'0:00.928',0.530
'0:00.930',0.515
'0:00.932',0.570
'0:00.934',0.610
'0:00.936',0.755
'0:00.938',0.845
'0:00.940',1.035
'0:00.942',1.025
'0:00.944',1.025
'0:00.946',0.810
'0:00.948',0.710
'0:00.950',0.650
'0:00.952',0.645
'0:00.954',0.570
'0:00.956',0.505
'0:00.958',0.435
'0:00.960',0.295
'0:00.962',0.160
'0:00.964',0.230
'0:00.966',0.230
'0:00.968',0.170
'0:00.970',0.105
'0:00.972',0.165
'0:00.974',0.245
'0:00.976',0.270
'0:00.978',0.305
'0:00.980',0.380
'0:00.982',0.450
'0:00.984',0.415
'0:00.986',0.385
'0:00.988',0.370
'0:00.990',0.365
'0:00.992',0.415
'0:00.994',0.370
'0:00.996',0.455
'0:00.998',0.485
'0:01.000',0.475
'0:01.002',0.525
'0:01.004',0.495
'0:01.006',0.450
'0:01.008',0.480
'0:01.010',0.410
'0:01.012',0.435
'0:01.014',0.460
'0:01.016',0.475
'0:01.018',0.440
'0:01.020',0.480
'0:01.022',0.530
'0:01.024',0.560
'0:01.026',0.410
'0:01.028',0.425
'0:01.030',0.390
'0:01.032',0.455
'0:01.034',0.480
'0:01.036',0.460
'0:01.038',0.490
'0:01.040',0.580
'0:01.042',0.570
'0:01.044',0.500
'0:01.046',0.445
'0:01.048',0.415
'0:01.050',0.415
'0:01.052',0.430
'0:01.054',0.445
'0:01.056',0.440
'0:01.058',0.495
'0:01.060',0.550
'0:01.062',0.565
'0:01.064',0.540
'0:01.066',0.460
'0:01.068',0.470
'0:01.070',0.455
'0:01.072',0.495
'0:01.074',0.495
'0:01.076',0.490
'0:01.078',0.505
'0:01.080',0.555
'0:01.082',0.540
'0:01.084',0.565
'0:01.086',0.545
'0:01.088',0.445
'0:01.090',0.435
'0:01.092',0.460
'0:01.094',0.440
'0:01.096',0.525
'0:01.098',0.540
'0:01.100',0.545
'0:01.102',0.580
'0:01.104',0.530
'0:01.106',0.560
'0:01.108',0.470
'0:01.110',0.445
'0:01.112',0.485
'0:01.114',0.480
'0:01.116',0.495
'0:01.118',0.645
'0:01.120',0.660
'0:01.122',0.585
'0:01.124',0.550
'0:01.126',0.585
'0:01.128',0.505
'0:01.130',0.470
'0:01.132',0.465
'0:01.134',0.535
'0:01.136',0.620
'0:01.138',0.655
'0:01.140',0.670
'0:01.142',0.665
'0:01.144',0.645
'0:01.146',0.625
'0:01.148',0.630
'0:01.150',0.525
'0:01.152',0.535
'0:01.154',0.610
'0:01.156',0.660
'0:01.158',0.705
'0:01.160',0.740
'0:01.162',0.695
'0:01.164',0.700
'0:01.166',0.615
'0:01.168',0.620
'0:01.170',0.640
'0:01.172',0.605
'0:01.174',0.655
'0:01.176',0.665
'0:01.178',0.735
'0:01.180',0.760
'0:01.182',0.765
'0:01.184',0.730
'0:01.186',0.700
'0:01.188',0.625
'0:01.190',0.615
'0:01.192',0.635
'0:01.194',0.675
'0:01.196',0.685
'0:01.198',0.715
'0:01.200',0.700
'0:01.202',0.745
'0:01.204',0.690
'0:01.206',0.685
'0:01.208',0.680
'0:01.210',0.600
'0:01.212',0.530
'0:01.214',0.620
'0:01.216',0.580
'0:01.218',0.645
'0:01.220',0.655
'0:01.222',0.655
'0:01.224',0.575
'0:01.226',0.595
'0:01.228',0.510
'0:01.230',0.400
'0:01.232',0.555
'0:01.234',0.555
'0:01.236',0.515
'0:01.238',0.645
'0:01.240',0.520
'0:01.242',0.475
'0:01.244',0.505
'0:01.246',0.475
'0:01.248',0.410
'0:01.250',0.445
'0:01.252',0.450
'0:01.254',0.415
'0:01.256',0.455
'0:01.258',0.535
'0:01.260',0.560
'0:01.262',0.525
'0:01.264',0.470
'0:01.266',0.445
'0:01.268',0.395
'0:01.270',0.395
'0:01.272',0.435
'0:01.274',0.425
'0:01.276',0.450
'0:01.278',0.515
'0:01.280',0.500
'0:01.282',0.485
'0:01.284',0.460
'0:01.286',0.460
'0:01.288',0.440
'0:01.290',0.420
'0:01.292',0.380
'0:01.294',0.425
'0:01.296',0.435
'0:01.298',0.515
'0:01.300',0.550
'0:01.302',0.500
'0:01.304',0.455
'0:01.306',0.435
'0:01.308',0.325
'0:01.310',0.365
'0:01.312',0.405
'0:01.314',0.435
'0:01.316',0.465
'0:01.318',0.505
'0:01.320',0.480
'0:01.322',0.525
'0:01.324',0.470
'0:01.326',0.430
'0:01.328',0.400
'0:01.330',0.400
'0:01.332',0.400
'0:01.334',0.420
'0:01.336',0.435
'0:01.338',0.500
'0:01.340',0.500
'0:01.342',0.535
'0:01.344',0.495
'0:01.346',0.475
'0:01.348',0.360
'0:01.350',0.385
'0:01.352',0.450
'0:01.354',0.455
'0:01.356',0.500
'0:01.358',0.470
'0:01.360',0.540
'0:01.362',0.580
'0:01.364',0.520
'0:01.366',0.470
'0:01.368',0.380
'0:01.370',0.405
'0:01.372',0.445
'0:01.374',0.490
'0:01.376',0.510
'0:01.378',0.570
'0:01.380',0.525
'0:01.382',0.515
'0:01.384',0.480
'0:01.386',0.445
'0:01.388',0.430
'0:01.390',0.440
'0:01.392',0.405
'0:01.394',0.495
'0:01.396',0.550
'0:01.398',0.540
'0:01.400',0.550
'0:01.402',0.500
'0:01.404',0.510
'0:01.406',0.445
'0:01.408',0.355
'0:01.410',0.330
'0:01.412',0.410
'0:01.414',0.475
'0:01.416',0.490
'0:01.418',0.540
'0:01.420',0.550
'0:01.422',0.545
'0:01.424',0.505
'0:01.426',0.405
'0:01.428',0.420
'0:01.430',0.460
'0:01.432',0.470
'0:01.434',0.490
'0:01.436',0.600
'0:01.438',0.535
'0:01.440',0.520
'0:01.442',0.495
'0:01.444',0.450
'0:01.446',0.375
'0:01.448',0.385
'0:01.450',0.380
'0:01.452',0.460
'0:01.454',0.505
'0:01.456',0.590
'0:01.458',0.525
'0:01.460',0.525
'0:01.462',0.550
'0:01.464',0.510
'0:01.466',0.410
'0:01.468',0.345
'0:01.470',0.395
'0:01.472',0.480
'0:01.474',0.430
'0:01.476',0.500
'0:01.478',0.545
'0:01.480',0.510
'0:01.482',0.510
'0:01.484',0.470
'0:01.486',0.430
'0:01.488',0.405
'0:01.490',0.430
'0:01.492',0.420
'0:01.494',0.520
'0:01.496',0.525
'0:01.498',0.515
'0:01.500',0.550
'0:01.502',0.495
'0:01.504',0.480
'0:01.506',0.435
'0:01.508',0.385
'0:01.510',0.440
'0:01.512',0.415
'0:01.514',0.505
'0:01.516',0.510
'0:01.518',0.520
'0:01.520',0.505
'0:01.522',0.445
'0:01.524',0.425
'0:01.526',0.460
'0:01.528',0.395
'0:01.530',0.415
'0:01.532',0.475
'0:01.534',0.465
'0:01.536',0.555
'0:01.538',0.555
'0:01.540',0.530
'0:01.542',0.525
'0:01.544',0.465
'0:01.546',0.435
'0:01.548',0.410
'0:01.550',0.385
'0:01.552',0.450
'0:01.554',0.505
'0:01.556',0.565
'0:01.558',0.565
'0:01.560',0.505
'0:01.562',0.485
'0:01.564',0.450
'0:01.566',0.465
'0:01.568',0.390
'0:01.570',0.400
'0:01.572',0.480
'0:01.574',0.480
'0:01.576',0.570
'0:01.578',0.535
'0:01.580',0.470
'0:01.582',0.495
'0:01.584',0.505
'0:01.586',0.360
'0:01.588',0.375
'0:01.590',0.450
'0:01.592',0.475
'0:01.594',0.525
'0:01.596',0.570
'0:01.598',0.580
'0:01.600',0.515
'0:01.602',0.490
'0:01.604',0.445
'0:01.606',0.435
'0:01.608',0.420
'0:01.610',0.425
'0:01.612',0.510
'0:01.614',0.515
'0:01.616',0.490
'0:01.618',0.520
'0:01.620',0.565
'0:01.622',0.475
'0:01.624',0.490
'0:01.626',0.435
'0:01.628',0.435
'0:01.630',0.385
'0:01.632',0.425
'0:01.634',0.490
'0:01.636',0.555
'0:01.638',0.620
'0:01.640',0.520
'0:01.642',0.505
'0:01.644',0.495
'0:01.646',0.435
'0:01.648',0.390
'0:01.650',0.430
'0:01.652',0.500
'0:01.654',0.560
'0:01.656',0.535
'0:01.658',0.580
'0:01.660',0.540
'0:01.662',0.505
'0:01.664',0.480
'0:01.666',0.455
'0:01.668',0.365
'0:01.670',0.430
'0:01.672',0.505
'0:01.674',0.505
'0:01.676',0.550
'0:01.678',0.555
'0:01.680',0.500
'0:01.682',0.450
'0:01.684',0.470
'0:01.686',0.455
'0:01.688',0.465
'0:01.690',0.440
'0:01.692',0.490
'0:01.694',0.550
'0:01.696',0.540
'0:01.698',0.545
'0:01.700',0.565
'0:01.702',0.480
'0:01.704',0.435
'0:01.706',0.425
'0:01.708',0.465
'0:01.710',0.475
'0:01.712',0.525
'0:01.714',0.535
'0:01.716',0.550
'0:01.718',0.555
'0:01.720',0.500
'0:01.722',0.495
'0:01.724',0.405
'0:01.726',0.485
'0:01.728',0.505
'0:01.730',0.500
'0:01.732',0.505
'0:01.734',0.530
'0:01.736',0.595
'0:01.738',0.570
'0:01.740',0.570
'0:01.742',0.535
'0:01.744',0.430
'0:01.746',0.465
'0:01.748',0.425
'0:01.750',0.465
'0:01.752',0.505
'0:01.754',0.590
'0:01.756',0.605
'0:01.758',0.570
'0:01.760',0.595
'0:01.762',0.560
'0:01.764',0.485
'0:01.766',0.460
'0:01.768',0.510
'0:01.770',0.545
'0:01.772',0.525
'0:01.774',0.595
'0:01.776',0.585
'0:01.778',0.550
'0:01.780',0.565
'0:01.782',0.535
'0:01.784',0.485
'0:01.786',0.505
'0:01.788',0.450
'0:01.790',0.520
'0:01.792',0.530
'0:01.794',0.600
'0:01.796',0.550
'0:01.798',0.545
'0:01.800',0.535
'0:01.802',0.485
'0:01.804',0.380
'0:01.806',0.435
'0:01.808',0.440
'0:01.810',0.425
'0:01.812',0.495
'0:01.814',0.550
'0:01.816',0.580
'0:01.818',0.590
'0:01.820',0.490
'0:01.822',0.465
'0:01.824',0.470
'0:01.826',0.450
'0:01.828',0.465
'0:01.830',0.410
'0:01.832',0.480
'0:01.834',0.525
'0:01.836',0.570
'0:01.838',0.550
'0:01.840',0.525
'0:01.842',0.485
'0:01.844',0.380
'0:01.846',0.405
'0:01.848',0.440
'0:01.850',0.500
'0:01.852',0.525
'0:01.854',0.525
'0:01.856',0.545
'0:01.858',0.545
'0:01.860',0.465
'0:01.862',0.485
'0:01.864',0.405
'0:01.866',0.445
'0:01.868',0.420
'0:01.870',0.445
'0:01.872',0.495
'0:01.874',0.570
'0:01.876',0.630
'0:01.878',0.705
'0:01.880',0.720
'0:01.882',0.755
'0:01.884',0.815
'0:01.886',0.945
'0:01.888',0.920
'0:01.890',1.025
'0:01.892',1.020
'0:01.894',1.070
'0:01.896',0.900
'0:01.898',0.815
'0:01.900',0.740
'0:01.902',0.635
'0:01.904',0.455
'0:01.906',0.365
'0:01.908',0.190
'0:01.910',0.220
'0:01.912',0.250
'0:01.914',0.300
'0:01.916',0.310
'0:01.918',0.315
'0:01.920',0.355
'0:01.922',0.320
'0:01.924',0.320
'0:01.926',0.315
'0:01.928',0.375
'0:01.930',0.405
'0:01.932',0.495
'0:01.934',0.550
'0:01.936',0.540
'0:01.938',0.535
'0:01.940',0.555
'0:01.942',0.460
'0:01.944',0.395
'0:01.946',0.430
'0:01.948',0.415
'0:01.950',0.570
'0:01.952',0.555
'0:01.954',0.605
'0:01.956',0.560
'0:01.958',0.630
'0:01.960',0.490
'0:01.962',0.475
'0:01.964',0.440
'0:01.966',0.435
'0:01.968',0.445
'0:01.970',0.530
'0:01.972',0.560
'0:01.974',0.575
'0:01.976',0.590
'0:01.978',0.535
'0:01.980',0.560
'0:01.982',0.475
'0:01.984',0.460
'0:01.986',0.530
'0:01.988',0.510
'0:01.990',0.545
'0:01.992',0.610
'0:01.994',0.580
'0:01.996',0.635
'0:01.998',0.615
'0:02.000',0.565
'0:02.002',0.565
'0:02.004',0.525
'0:02.006',0.460
'0:02.008',0.475
'0:02.010',0.510
'0:02.012',0.595
'0:02.014',0.665
'0:02.016',0.635
'0:02.018',0.610
'0:02.020',0.585
'0:02.022',0.495
'0:02.024',0.455
'0:02.026',0.450
'0:02.028',0.470
'0:02.030',0.625
'0:02.032',0.660
'0:02.034',0.695
'0:02.036',0.585
'0:02.038',0.625
'0:02.040',0.595
'0:02.042',0.495
'0:02.044',0.500
'0:02.046',0.535
'0:02.048',0.530
'0:02.050',0.555
'0:02.052',0.675
'0:02.054',0.665
'0:02.056',0.680
'0:02.058',0.660
'0:02.060',0.620
'0:02.062',0.540
'0:02.064',0.505
'0:02.066',0.620
'0:02.068',0.630
'0:02.070',0.595
'0:02.072',0.680
'0:02.074',0.690
'0:02.076',0.685
'0:02.078',0.630
'0:02.080',0.620
'0:02.082',0.580
'0:02.084',0.570
'0:02.086',0.605
'0:02.088',0.640
'0:02.090',0.705
'0:02.092',0.695
'0:02.094',0.735
'0:02.096',0.710
'0:02.098',0.685
'0:02.100',0.680
'0:02.102',0.585
'0:02.104',0.630
'0:02.106',0.645
'0:02.108',0.715
'0:02.110',0.760
'0:02.112',0.810
'0:02.114',0.800
'0:02.116',0.765
'0:02.118',0.755
'0:02.120',0.735
'0:02.122',0.675
'0:02.124',0.690
'0:02.126',0.690
'0:02.128',0.795
'0:02.130',0.825
'0:02.132',0.795
'0:02.134',0.815
'0:02.136',0.830
'0:02.138',0.780
'0:02.140',0.760
'0:02.142',0.710
'0:02.144',0.705
'0:02.146',0.645
'0:02.148',0.710
'0:02.150',0.760
'0:02.152',0.860
'0:02.154',0.810
'0:02.156',0.790
'0:02.158',0.750
'0:02.160',0.665
'0:02.162',0.580
'0:02.164',0.580
'0:02.166',0.650
'0:02.168',0.670
'0:02.170',0.675
'0:02.172',0.690
'0:02.174',0.695
'0:02.176',0.680
'0:02.178',0.635
'0:02.180',0.575
'0:02.182',0.495
'0:02.184',0.500
'0:02.186',0.525
'0:02.188',0.550
'0:02.190',0.580
'0:02.192',0.665
'0:02.194',0.600
'0:02.196',0.580
'0:02.198',0.535
'0:02.200',0.555
'0:02.202',0.535
'0:02.204',0.510
'0:02.206',0.490
'0:02.208',0.535
'0:02.210',0.510
'0:02.212',0.560
'0:02.214',0.595
'0:02.216',0.620
'0:02.218',0.545
'0:02.220',0.495
'0:02.222',0.435
'0:02.224',0.455
'0:02.226',0.475
'0:02.228',0.535
'0:02.230',0.565
'0:02.232',0.570
'0:02.234',0.600
'0:02.236',0.575
'0:02.238',0.540
'0:02.240',0.475
'0:02.242',0.430
'0:02.244',0.495
'0:02.246',0.400
'0:02.248',0.510
'0:02.250',0.580
'0:02.252',0.540
'0:02.254',0.640
'0:02.256',0.560
'0:02.258',0.525
'0:02.260',0.450
'0:02.262',0.450
'0:02.264',0.465
'0:02.266',0.525
'0:02.268',0.495
'0:02.270',0.550
'0:02.272',0.600
'0:02.274',0.600
'0:02.276',0.535
'0:02.278',0.525
'0:02.280',0.470
'0:02.282',0.465
'0:02.284',0.500
'0:02.286',0.520
'0:02.288',0.510
'0:02.290',0.590
'0:02.292',0.590
'0:02.294',0.560
'0:02.296',0.540
'0:02.298',0.515
'0:02.300',0.460
'0:02.302',0.425
'0:02.304',0.445
'0:02.306',0.510
'0:02.308',0.555
'0:02.310',0.645
'0:02.312',0.640
'0:02.314',0.620
'0:02.316',0.525
'0:02.318',0.535
'0:02.320',0.490
'0:02.322',0.500
'0:02.324',0.480
'0:02.326',0.515
'0:02.328',0.570
'0:02.330',0.585
'0:02.332',0.570
'0:02.334',0.600
'0:02.336',0.580
'0:02.338',0.555
'0:02.340',0.475
'0:02.342',0.485
'0:02.344',0.495
'0:02.346',0.530
'0:02.348',0.560
'0:02.350',0.585
'0:02.352',0.660
'0:02.354',0.570
'0:02.356',0.650
'0:02.358',0.565
'0:02.360',0.490
'0:02.362',0.450
'0:02.364',0.440
'0:02.366',0.480
'0:02.368',0.540
'0:02.370',0.610
'0:02.372',0.620
'0:02.374',0.635
'0:02.376',0.570
'0:02.378',0.505
'0:02.380',0.485
'0:02.382',0.440
'0:02.384',0.530
'0:02.386',0.540
'0:02.388',0.590
'0:02.390',0.650
'0:02.392',0.595
'0:02.394',0.640
'0:02.396',0.540
'0:02.398',0.530
'0:02.400',0.415
'0:02.402',0.450
'0:02.404',0.430
'0:02.406',0.505
'0:02.408',0.595
'0:02.410',0.630
'0:02.412',0.605
'0:02.414',0.630
'0:02.416',0.555
'0:02.418',0.525
'0:02.420',0.470
'0:02.422',0.460
'0:02.424',0.540
'0:02.426',0.525
'0:02.428',0.590
'0:02.430',0.605
'0:02.432',0.575
'0:02.434',0.565
'0:02.436',0.525
'0:02.438',0.505
'0:02.440',0.505
'0:02.442',0.440
'0:02.444',0.430
'0:02.446',0.500
'0:02.448',0.545
'0:02.450',0.575
'0:02.452',0.650
'0:02.454',0.625
'0:02.456',0.560
'0:02.458',0.515
'0:02.460',0.470
'0:02.462',0.485
'0:02.464',0.480
'0:02.466',0.530
'0:02.468',0.570
'0:02.470',0.590
'0:02.472',0.565
'0:02.474',0.540
'0:02.476',0.505
'0:02.478',0.570
'0:02.480',0.480
'0:02.482',0.480
'0:02.484',0.470
'0:02.486',0.530
'0:02.488',0.610
'0:02.490',0.585
'0:02.492',0.635
'0:02.494',0.560
'0:02.496',0.550
'0:02.498',0.510
'0:02.500',0.455
'0:02.502',0.465
'0:02.504',0.470
'0:02.506',0.510
'0:02.508',0.565
'0:02.510',0.580
'0:02.512',0.580
'0:02.514',0.605
'0:02.516',0.565
'0:02.518',0.475
'0:02.520',0.495
'0:02.522',0.440
'0:02.524',0.500
'0:02.526',0.600
'0:02.528',0.590
'0:02.530',0.610
'0:02.532',0.575
'0:02.534',0.605
'0:02.536',0.515
'0:02.538',0.485
'0:02.540',0.455
'0:02.542',0.455
'0:02.544',0.490
'0:02.546',0.515
'0:02.548',0.565
'0:02.550',0.630
'0:02.552',0.620
'0:02.554',0.570
'0:02.556',0.585
'0:02.558',0.505
'0:02.560',0.460
'0:02.562',0.440
'0:02.564',0.510
'0:02.566',0.550
'0:02.568',0.555
'0:02.570',0.590
'0:02.572',0.625
'0:02.574',0.550
'0:02.576',0.525
'0:02.578',0.460
'0:02.580',0.485
'0:02.582',0.495
'0:02.584',0.490
'0:02.586',0.585
'0:02.588',0.610
'0:02.590',0.595
'0:02.592',0.615
'0:02.594',0.585
'0:02.596',0.565
'0:02.598',0.445
'0:02.600',0.400
'0:02.602',0.465
'0:02.604',0.525
'0:02.606',0.510
'0:02.608',0.640
'0:02.610',0.670
'0:02.612',0.600
'0:02.614',0.560
'0:02.616',0.525
'0:02.618',0.500
'0:02.620',0.460
'0:02.622',0.455
'0:02.624',0.570
'0:02.626',0.565
'0:02.628',0.605
'0:02.630',0.550
'0:02.632',0.570
'0:02.634',0.530
'0:02.636',0.485
'0:02.638',0.440
'0:02.640',0.455
'0:02.642',0.465
'0:02.644',0.550
'0:02.646',0.525
'0:02.648',0.585
'0:02.650',0.630
'0:02.652',0.585
'0:02.654',0.555
'0:02.656',0.530
'0:02.658',0.595
'0:02.660',0.465
'0:02.662',0.470
'0:02.664',0.515
'0:02.666',0.525
'0:02.668',0.585
'0:02.670',0.635
'0:02.672',0.610
'0:02.674',0.560
'0:02.676',0.520
'0:02.678',0.470
'0:02.680',0.465
'0:02.682',0.560
'0:02.684',0.480
'0:02.686',0.535
'0:02.688',0.610
'0:02.690',0.600
'0:02.692',0.590
'0:02.694',0.550
'0:02.696',0.520
'0:02.698',0.450
'0:02.700',0.435
'0:02.702',0.500
'0:02.704',0.500
'0:02.706',0.585
'0:02.708',0.615
'0:02.710',0.610
'0:02.712',0.615
'0:02.714',0.565
'0:02.716',0.510
'0:02.718',0.520
'0:02.720',0.455
'0:02.722',0.510
'0:02.724',0.585
'0:02.726',0.565
'0:02.728',0.605
'0:02.730',0.590
'0:02.732',0.660
'0:02.734',0.610
'0:02.736',0.580
'0:02.738',0.575
'0:02.740',0.540
'0:02.742',0.530
'0:02.744',0.555
'0:02.746',0.590
'0:02.748',0.640
'0:02.750',0.645
'0:02.752',0.610
'0:02.754',0.580
'0:02.756',0.525
'0:02.758',0.525
'0:02.760',0.525
'0:02.762',0.565
'0:02.764',0.565
'0:02.766',0.605
'0:02.768',0.675
'0:02.770',0.620
'0:02.772',0.620
'0:02.774',0.605
'0:02.776',0.540
'0:02.778',0.455
'0:02.780',0.560
'0:02.782',0.525
'0:02.784',0.560
'0:02.786',0.585
'0:02.788',0.665
'0:02.790',0.650
'0:02.792',0.630
'0:02.794',0.570
'0:02.796',0.505
'0:02.798',0.465
'0:02.800',0.465
'0:02.802',0.505
'0:02.804',0.505
'0:02.806',0.560
'0:02.808',0.600
'0:02.810',0.610
'0:02.812',0.580
'0:02.814',0.525
'0:02.816',0.535
'0:02.818',0.460
'0:02.820',0.450
'0:02.822',0.535
'0:02.824',0.515
'0:02.826',0.560
'0:02.828',0.580
'0:02.830',0.615
'0:02.832',0.565
'0:02.834',0.535
'0:02.836',0.520
'0:02.838',0.490
'0:02.840',0.480
'0:02.842',0.505
'0:02.844',0.545
'0:02.846',0.570
'0:02.848',0.640
'0:02.850',0.610
'0:02.852',0.540
'0:02.854',0.495
'0:02.856',0.440
'0:02.858',0.445
'0:02.860',0.475
'0:02.862',0.470
'0:02.864',0.520
'0:02.866',0.585
'0:02.868',0.675
'0:02.870',0.735
'0:02.872',0.730
'0:02.874',0.720
'0:02.876',0.735
'0:02.878',0.865
'0:02.880',0.955
'0:02.882',0.995
'0:02.884',1.040
'0:02.886',1.140
'0:02.888',0.990
'0:02.890',0.910
'0:02.892',0.830
'0:02.894',0.775
'0:02.896',0.655
'0:02.898',0.575
'0:02.900',0.455
'0:02.902',0.275
'0:02.904',0.265
'0:02.906',0.350
'0:02.908',0.380
'0:02.910',0.400
'0:02.912',0.370
'0:02.914',0.320
'0:02.916',0.290
'0:02.918',0.305
'0:02.920',0.395
'0:02.922',0.405
'0:02.924',0.465
'0:02.926',0.590
'0:02.928',0.520
'0:02.930',0.620
'0:02.932',0.590
'0:02.934',0.510
'0:02.936',0.455
'0:02.938',0.510
'0:02.940',0.475
'0:02.942',0.520
'0:02.944',0.550
'0:02.946',0.655
'0:02.948',0.640
'0:02.950',0.625
'0:02.952',0.580
'0:02.954',0.570
'0:02.956',0.495
'0:02.958',0.470
'0:02.960',0.450
'0:02.962',0.530
'0:02.964',0.530
'0:02.966',0.660
'0:02.968',0.675
'0:02.970',0.645
'0:02.972',0.590
'0:02.974',0.570
'0:02.976',0.480
'0:02.978',0.540
'0:02.980',0.520
'0:02.982',0.540
'0:02.984',0.590
'0:02.986',0.700
'0:02.988',0.680
'0:02.990',0.610
'0:02.992',0.615
'0:02.994',0.530
'0:02.996',0.475
'0:02.998',0.550
'0:03.000',0.525
'0:03.002',0.575
'0:03.004',0.590
'0:03.006',0.695
'0:03.008',0.645
'0:03.010',0.630
'0:03.012',0.625
'0:03.014',0.615
'0:03.016',0.525
'0:03.018',0.535
'0:03.020',0.505
'0:03.022',0.565
'0:03.024',0.570
'0:03.026',0.680
'0:03.028',0.665
'0:03.030',0.630
'0:03.032',0.650
'0:03.034',0.620
'0:03.036',0.540
'0:03.038',0.520
'0:03.040',0.585
'0:03.042',0.630
'0:03.044',0.660
'0:03.046',0.705
'0:03.048',0.705
'0:03.050',0.675
'0:03.052',0.605
'0:03.054',0.605
'0:03.056',0.555
'0:03.058',0.600
'0:03.060',0.555
'0:03.062',0.595
'0:03.064',0.675
'0:03.066',0.720
'0:03.068',0.755
'0:03.070',0.710
'0:03.072',0.665
'0:03.074',0.580
'0:03.076',0.605
'0:03.078',0.620
'0:03.080',0.635
'0:03.082',0.735
'0:03.084',0.775
'0:03.086',0.725
'0:03.088',0.785
'0:03.090',0.745
'0:03.092',0.690
'0:03.094',0.650
'0:03.096',0.650
'0:03.098',0.645
'0:03.100',0.685
'0:03.102',0.755
'0:03.104',0.780
'0:03.106',0.830
'0:03.108',0.875
'0:03.110',0.830
'0:03.112',0.745
'0:03.114',0.695
'0:03.116',0.720
'0:03.118',0.695
'0:03.120',0.765
'0:03.122',0.800
'0:03.124',0.830
'0:03.126',0.895
'0:03.128',0.850
'0:03.130',0.805
'0:03.132',0.780
'0:03.134',0.760
'0:03.136',0.725
'0:03.138',0.705
'0:03.140',0.740
'0:03.142',0.760
'0:03.144',0.830
'0:03.146',0.805
'0:03.148',0.815
'0:03.150',0.770
'0:03.152',0.700
'0:03.154',0.710
'0:03.156',0.705
'0:03.158',0.720
'0:03.160',0.650
'0:03.162',0.695
'0:03.164',0.745
'0:03.166',0.705
'0:03.168',0.675
'0:03.170',0.635
'0:03.172',0.680
'0:03.174',0.590
'0:03.176',0.545
'0:03.178',0.570
'0:03.180',0.565
'0:03.182',0.610
'0:03.184',0.685
'0:03.186',0.660
'0:03.188',0.640
'0:03.190',0.630
'0:03.192',0.545
'0:03.194',0.505
'0:03.196',0.470
'0:03.198',0.475
'0:03.200',0.560
'0:03.202',0.615
'0:03.204',0.715
'0:03.206',0.675
'0:03.208',0.620
'0:03.210',0.565
'0:03.212',0.555
'0:03.214',0.475
'0:03.216',0.465
'0:03.218',0.520
'0:03.220',0.500
'0:03.222',0.540
'0:03.224',0.630
'0:03.226',0.625
'0:03.228',0.595
'0:03.230',0.600
'0:03.232',0.550
'0:03.234',0.480
'0:03.236',0.525
'0:03.238',0.540
'0:03.240',0.480
'0:03.242',0.505
'0:03.244',0.595
'0:03.246',0.595
'0:03.248',0.605
'0:03.250',0.595
'0:03.252',0.570
'0:03.254',0.440
'0:03.256',0.515
'0:03.258',0.490
'0:03.260',0.450
'0:03.262',0.500
'0:03.264',0.575
'0:03.266',0.575
'0:03.268',0.585
'0:03.270',0.535
'0:03.272',0.525
'0:03.274',0.425
'0:03.276',0.475
'0:03.278',0.480
'0:03.280',0.525
'0:03.282',0.520
'0:03.284',0.590
'0:03.286',0.605
'0:03.288',0.590
'0:03.290',0.600
'0:03.292',0.545
'0:03.294',0.480
'0:03.296',0.495
'0:03.298',0.525
'0:03.300',0.555
'0:03.302',0.565
'0:03.304',0.580
'0:03.306',0.630
'0:03.308',0.615
'0:03.310',0.620
'0:03.312',0.550
'0:03.314',0.460
'0:03.316',0.480
'0:03.318',0.470
'0:03.320',0.515
'0:03.322',0.580
'0:03.324',0.635
'0:03.326',0.585
'0:03.328',0.620
'0:03.330',0.580
'0:03.332',0.560
'0:03.334',0.415
'0:03.336',0.515
'0:03.338',0.525
'0:03.340',0.540
'0:03.342',0.580
'0:03.344',0.655
'0:03.346',0.665
'0:03.348',0.635
'0:03.350',0.605
'0:03.352',0.535
'0:03.354',0.525
'0:03.356',0.445
'0:03.358',0.565
'0:03.360',0.565
'0:03.362',0.595
'0:03.364',0.610
'0:03.366',0.610
'0:03.368',0.585
'0:03.370',0.560
'0:03.372',0.515
'0:03.374',0.480
'0:03.376',0.565
'0:03.378',0.475
'0:03.380',0.555
'0:03.382',0.620
'0:03.384',0.630
'0:03.386',0.610
'0:03.388',0.620
'0:03.390',0.575
'0:03.392',0.525
'0:03.394',0.535
'0:03.396',0.470
'0:03.398',0.460
'0:03.400',0.525
'0:03.402',0.610
'0:03.404',0.690
'0:03.406',0.605
'0:03.408',0.605
'0:03.410',0.555
'0:03.412',0.480
'0:03.414',0.510
'0:03.416',0.480
'0:03.418',0.460
'0:03.420',0.550
'0:03.422',0.620
'0:03.424',0.625
'0:03.426',0.625
'0:03.428',0.620
'0:03.430',0.545
'0:03.432',0.525
'0:03.434',0.515
'0:03.436',0.490
'0:03.438',0.525
'0:03.440',0.570
'0:03.442',0.620
'0:03.444',0.590
'0:03.446',0.605
'0:03.448',0.565
'0:03.450',0.540
'0:03.452',0.510
'0:03.454',0.495
'0:03.456',0.470
'0:03.458',0.500
'0:03.460',0.585
'0:03.462',0.600
'0:03.464',0.590
'0:03.466',0.605
'0:03.468',0.580
'0:03.470',0.575
'0:03.472',0.495
'0:03.474',0.480
'0:03.476',0.460
'0:03.478',0.570
'0:03.480',0.640
'0:03.482',0.640
'0:03.484',0.615
'0:03.486',0.595
'0:03.488',0.575
'0:03.490',0.590
'0:03.492',0.475
'0:03.494',0.460
'0:03.496',0.530
'0:03.498',0.555
'0:03.500',0.515
'0:03.502',0.610
'0:03.504',0.615
'0:03.506',0.625
'0:03.508',0.615
'0:03.510',0.530
'0:03.512',0.525
'0:03.514',0.465
'0:03.516',0.460
'0:03.518',0.525
'0:03.520',0.565
'0:03.522',0.650
'0:03.524',0.575
'0:03.526',0.570
'0:03.528',0.590
'0:03.530',0.615
'0:03.532',0.460
'0:03.534',0.485
'0:03.536',0.480
'0:03.538',0.565
'0:03.540',0.570
'0:03.542',0.625
'0:03.544',0.630
'0:03.546',0.595
'0:03.548',0.525
'0:03.550',0.515
'0:03.552',0.510
'0:03.554',0.465
'0:03.556',0.510
'0:03.558',0.510
'0:03.560',0.555
'0:03.562',0.655
'0:03.564',0.650
'0:03.566',0.580
'0:03.568',0.590
'0:03.570',0.545
'0:03.572',0.500
'0:03.574',0.465
'0:03.576',0.535
'0:03.578',0.525
'0:03.580',0.525
'0:03.582',0.615
'0:03.584',0.590
'0:03.586',0.590
'0:03.588',0.610
'0:03.590',0.505
'0:03.592',0.440
'0:03.594',0.465
'0:03.596',0.490
'0:03.598',0.550
'0:03.600',0.570
'0:03.602',0.650
'0:03.604',0.610
'0:03.606',0.600
'0:03.608',0.575
'0:03.610',0.565
'0:03.612',0.505
'0:03.614',0.480
'0:03.616',0.495
'0:03.618',0.565
'0:03.620',0.590
'0:03.622',0.615
'0:03.624',0.685
'0:03.626',0.605
'0:03.628',0.605
'0:03.630',0.555
'0:03.632',0.465
'0:03.634',0.515
'0:03.636',0.565
'0:03.638',0.660
'0:03.640',0.645
'0:03.642',0.630
'0:03.644',0.620
'0:03.646',0.610
'0:03.648',0.625
'0:03.650',0.570
'0:03.652',0.570
'0:03.654',0.510
'0:03.656',0.535
'0:03.658',0.575
'0:03.660',0.600
'0:03.662',0.660
'0:03.664',0.665
'0:03.666',0.635
'0:03.668',0.625
'0:03.670',0.575
'0:03.672',0.490
'0:03.674',0.500
'0:03.676',0.505
'0:03.678',0.625
'0:03.680',0.595
'0:03.682',0.580
'0:03.684',0.620
'0:03.686',0.585
'0:03.688',0.535
'0:03.690',0.540
'0:03.692',0.545
'0:03.694',0.495
'0:03.696',0.505
'0:03.698',0.545
'0:03.700',0.575
'0:03.702',0.635
'0:03.704',0.595
'0:03.706',0.565
'0:03.708',0.525
'0:03.710',0.525
'0:03.712',0.450
'0:03.714',0.460
'0:03.716',0.485
'0:03.718',0.525
'0:03.720',0.640
'0:03.722',0.615
'0:03.724',0.580
'0:03.726',0.520
'0:03.728',0.555
'0:03.730',0.520
'0:03.732',0.465
'0:03.734',0.430
'0:03.736',0.535
'0:03.738',0.535
'0:03.740',0.590
'0:03.742',0.580
'0:03.744',0.670
'0:03.746',0.585
'0:03.748',0.465
'0:03.750',0.500
'0:03.752',0.465
'0:03.754',0.460
'0:03.756',0.485
'0:03.758',0.555
'0:03.760',0.570
'0:03.762',0.595
'0:03.764',0.680
'0:03.766',0.695
'0:03.768',0.735
'0:03.770',0.775
'0:03.772',0.880
'0:03.774',0.900
'0:03.776',1.010
'0:03.778',1.035
'0:03.780',1.120
'0:03.782',0.950
'0:03.784',0.925
'0:03.786',0.810
'0:03.788',0.765
'0:03.790',0.625
'0:03.792',0.565
'0:03.794',0.430
'0:03.796',0.345
'0:03.798',0.235
'0:03.800',0.340
'0:03.802',0.400
'0:03.804',0.360
'0:03.806',0.320
'0:03.808',0.310
'0:03.810',0.265
'0:03.812',0.285
'0:03.814',0.380
'0:03.816',0.390
'0:03.818',0.450
'0:03.820',0.520
'0:03.822',0.570
'0:03.824',0.600
'0:03.826',0.570
'0:03.828',0.545
'0:03.830',0.440
'0:03.832',0.455
'0:03.834',0.470
'0:03.836',0.480
'0:03.838',0.510
'0:03.840',0.585
'0:03.842',0.715
'0:03.844',0.670
'0:03.846',0.565
'0:03.848',0.525
'0:03.850',0.460
'0:03.852',0.510
'0:03.854',0.510
'0:03.856',0.550
'0:03.858',0.570
'0:03.860',0.650
'0:03.862',0.655
'0:03.864',0.610
'0:03.866',0.585
'0:03.868',0.560
'0:03.870',0.590
'0:03.872',0.535
'0:03.874',0.515
'0:03.876',0.585
'0:03.878',0.610
'0:03.880',0.630
'0:03.882',0.615
'0:03.884',0.580
'0:03.886',0.585
'0:03.888',0.580
'0:03.890',0.555
'0:03.892',0.580
'0:03.894',0.540
'0:03.896',0.555
'0:03.898',0.620
'0:03.900',0.685
'0:03.902',0.660
'0:03.904',0.640
'0:03.906',0.555
'0:03.908',0.570
'0:03.910',0.560
'0:03.912',0.530
'0:03.914',0.580
'0:03.916',0.575
'0:03.918',0.615
'0:03.920',0.650
'0:03.922',0.635
'0:03.924',0.700
'0:03.926',0.615
'0:03.928',0.575
'0:03.930',0.560
'0:03.932',0.515
'0:03.934',0.595
'0:03.936',0.620
'0:03.938',0.665
'0:03.940',0.685
'0:03.942',0.680
'0:03.944',0.745
'0:03.946',0.680
'0:03.948',0.595
'0:03.950',0.600
'0:03.952',0.580
'0:03.954',0.580
'0:03.956',0.640
'0:03.958',0.675
'0:03.960',0.740
'0:03.962',0.770
'0:03.964',0.725
'0:03.966',0.655
'0:03.968',0.605
'0:03.970',0.620
'0:03.972',0.625
'0:03.974',0.630
'0:03.976',0.700
'0:03.978',0.775
'0:03.980',0.780
'0:03.982',0.735
'0:03.984',0.750
'0:03.986',0.770
'0:03.988',0.710
'0:03.990',0.690
'0:03.992',0.710
'0:03.994',0.680
'0:03.996',0.775
'0:03.998',0.820
'0:04.000',0.865
'0:04.002',0.830
'0:04.004',0.830
'0:04.006',0.800
'0:04.008',0.755
'0:04.010',0.730
'0:04.012',0.730
'0:04.014',0.800
'0:04.016',0.810
'0:04.018',0.865
'0:04.020',0.870
'0:04.022',0.885
'0:04.024',0.840
'0:04.026',0.810
'0:04.028',0.790
'0:04.030',0.760
'0:04.032',0.785
'0:04.034',0.760
'0:04.036',0.790
'0:04.038',0.905
'0:04.040',0.870
'0:04.042',0.800
'0:04.044',0.785
'0:04.046',0.745
'0:04.048',0.755
'0:04.050',0.690
'0:04.052',0.700
'0:04.054',0.720
'0:04.056',0.715
'0:04.058',0.715
'0:04.060',0.780
'0:04.062',0.725
'0:04.064',0.635
'0:04.066',0.655
'0:04.068',0.595
'0:04.070',0.585
'0:04.072',0.545
'0:04.074',0.550
'0:04.076',0.570
'0:04.078',0.700
'0:04.080',0.720
'0:04.082',0.665
'0:04.084',0.595
'0:04.086',0.565
'0:04.088',0.465
'0:04.090',0.565
'0:04.092',0.540
'0:04.094',0.525
'0:04.096',0.590
'0:04.098',0.660
'0:04.100',0.640
'0:04.102',0.585
'0:04.104',0.615
'0:04.106',0.575
'0:04.108',0.450
'0:04.110',0.500
'0:04.112',0.490
'0:04.114',0.530
'0:04.116',0.605
'0:04.118',0.635
'0:04.120',0.610
'0:04.122',0.615
'0:04.124',0.585
'0:04.126',0.525
'0:04.128',0.460
'0:04.130',0.480
'0:04.132',0.505
'0:04.134',0.515
'0:04.136',0.530
'0:04.138',0.600
'0:04.140',0.620
'0:04.142',0.555
'0:04.144',0.580
'0:04.146',0.620
'0:04.148',0.480
'0:04.150',0.440
'0:04.152',0.480
'0:04.154',0.595
'0:04.156',0.550
'0:04.158',0.595
'0:04.160',0.590
'0:04.162',0.605
'0:04.164',0.580
'0:04.166',0.600
'0:04.168',0.435
'0:04.170',0.480
'0:04.172',0.495
'0:04.174',0.515
'0:04.176',0.570
'0:04.178',0.625
'0:04.180',0.625
'0:04.182',0.625
'0:04.184',0.560
'0:04.186',0.500
'0:04.188',0.460
'0:04.190',0.515
'0:04.192',0.520
'0:04.194',0.545
'0:04.196',0.600
'0:04.198',0.645
'0:04.200',0.655
'0:04.202',0.565
'0:04.204',0.595
'0:04.206',0.540
'0:04.208',0.505
'0:04.210',0.475
'0:04.212',0.560
'0:04.214',0.600
'0:04.216',0.620
'0:04.218',0.680
'0:04.220',0.625
'0:04.222',0.610
'0:04.224',0.575
'0:04.226',0.530
'0:04.228',0.505
'0:04.230',0.520
'0:04.232',0.555
'0:04.234',0.635
'0:04.236',0.580
'0:04.238',0.590
'0:04.240',0.645
'0:04.242',0.610
'0:04.244',0.555
'0:04.246',0.500
'0:04.248',0.520
'0:04.250',0.535
'0:04.252',0.550
'0:04.254',0.530
'0:04.256',0.610
'0:04.258',0.660
'0:04.260',0.690
'0:04.262',0.610
'0:04.264',0.600
'0:04.266',0.500
'0:04.268',0.450
'0:04.270',0.455
'0:04.272',0.530
'0:04.274',0.585
'0:04.276',0.645
'0:04.278',0.645
'0:04.280',0.560
'0:04.282',0.570
'0:04.284',0.600
'0:04.286',0.575
'0:04.288',0.500
'0:04.290',0.485
'0:04.292',0.525
'0:04.294',0.635
'0:04.296',0.640
'0:04.298',0.595
'0:04.300',0.600
'0:04.302',0.570
'0:04.304',0.530
'0:04.306',0.510
'0:04.308',0.535
'0:04.310',0.455
'0:04.312',0.505
'0:04.314',0.600
'0:04.316',0.625
'0:04.318',0.610
'0:04.320',0.570
'0:04.322',0.540
'0:04.324',0.540
'0:04.326',0.475
'0:04.328',0.485
'0:04.330',0.520
'0:04.332',0.555
'0:04.334',0.595
'0:04.336',0.655
'0:04.338',0.605
'0:04.340',0.625
'0:04.342',0.580
'0:04.344',0.550
'0:04.346',0.500
'0:04.348',0.525
'0:04.350',0.500
'0:04.352',0.525
'0:04.354',0.545
'0:04.356',0.635
'0:04.358',0.590
'0:04.360',0.620
'0:04.362',0.610
'0:04.364',0.560
'0:04.366',0.465
'0:04.368',0.460
'0:04.370',0.450
'0:04.372',0.575
'0:04.374',0.530
'0:04.376',0.635
'0:04.378',0.635
'0:04.380',0.595
'0:04.382',0.580
'0:04.384',0.565
'0:04.386',0.430
'0:04.388',0.525
'0:04.390',0.515
'0:04.392',0.535
'0:04.394',0.565
'0:04.396',0.585
'0:04.398',0.600
'0:04.400',0.595
'0:04.402',0.500
'0:04.404',0.520
'0:04.406',0.455
'0:04.408',0.500
'0:04.410',0.540
'0:04.412',0.560
'0:04.414',0.550
'0:04.416',0.635
'0:04.418',0.630
'0:04.420',0.635
'0:04.422',0.580
'0:04.424',0.575
'0:04.426',0.460
'0:04.428',0.420
'0:04.430',0.470
'0:04.432',0.535
'0:04.434',0.575
'0:04.436',0.635
'0:04.438',0.655
'0:04.440',0.590
'0:04.442',0.610
'0:04.444',0.545
'0:04.446',0.485
'0:04.448',0.485
'0:04.450',0.440
'0:04.452',0.465
'0:04.454',0.540
'0:04.456',0.610
'0:04.458',0.620
'0:04.460',0.585
'0:04.462',0.555
'0:04.464',0.545
'0:04.466',0.475
'0:04.468',0.460
'0:04.470',0.520
'0:04.472',0.550
'0:04.474',0.535
'0:04.476',0.630
'0:04.478',0.630
'0:04.480',0.630
'0:04.482',0.605
'0:04.484',0.530
'0:04.486',0.465
'0:04.488',0.505
'0:04.490',0.550
'0:04.492',0.545
'0:04.494',0.535
'0:04.496',0.600
'0:04.498',0.595
'0:04.500',0.705
'0:04.502',0.590
'0:04.504',0.525
'0:04.506',0.510
'0:04.508',0.435
'0:04.510',0.430
'0:04.512',0.520
'0:04.514',0.635
'0:04.516',0.655
'0:04.518',0.680
'0:04.520',0.640
'0:04.522',0.600
'0:04.524',0.575
'0:04.526',0.495
'0:04.528',0.555
'0:04.530',0.585
'0:04.532',0.575
'0:04.534',0.640
'0:04.536',0.680
'0:04.538',0.645
'0:04.540',0.610
'0:04.542',0.590
'0:04.544',0.555
'0:04.546',0.545
'0:04.548',0.520
'0:04.550',0.560
'0:04.552',0.580
'0:04.554',0.630
'0:04.556',0.640
'0:04.558',0.660
'0:04.560',0.595
'0:04.562',0.550
'0:04.564',0.480
'0:04.566',0.475
'0:04.568',0.460
'0:04.570',0.475
'0:04.572',0.570
'0:04.574',0.600
'0:04.576',0.635
'0:04.578',0.645
'0:04.580',0.550
'0:04.582',0.500
'0:04.584',0.465
'0:04.586',0.480
'0:04.588',0.445
'0:04.590',0.475
'0:04.592',0.555
'0:04.594',0.640
'0:04.596',0.580
'0:04.598',0.535
'0:04.600',0.525
'0:04.602',0.480
'0:04.604',0.510
'0:04.606',0.510
'0:04.608',0.455
'0:04.610',0.535
'0:04.612',0.545
'0:04.614',0.605
'0:04.616',0.570
'0:04.618',0.630
'0:04.620',0.580
'0:04.622',0.525
'0:04.624',0.475
'0:04.626',0.475
'0:04.628',0.480
'0:04.630',0.470
'0:04.632',0.535
'0:04.634',0.630
'0:04.636',0.580
'0:04.638',0.490
'0:04.640',0.515
'0:04.642',0.490
'0:04.644',0.460
'0:04.646',0.470
'0:04.648',0.560
'0:04.650',0.650
'0:04.652',0.740
'0:04.654',0.875
'0:04.656',0.935
'0:04.658',1.005
'0:04.660',1.030
'0:04.662',1.105
'0:04.664',0.980
'0:04.666',0.905
'0:04.668',0.815
'0:04.670',0.755
'0:04.672',0.745
'0:04.674',0.750
'0:04.676',0.670
'0:04.678',0.575
'0:04.680',0.310
'0:04.682',0.250
'0:04.684',0.170
'0:04.686',0.225
'0:04.688',0.265
'0:04.690',0.330
'0:04.692',0.350
'0:04.694',0.460
'0:04.696',0.430
'0:04.698',0.440
'0:04.700',0.440
'0:04.702',0.430
'0:04.704',0.425
'0:04.706',0.405
'0:04.708',0.410
'0:04.710',0.470
'0:04.712',0.580
'0:04.714',0.645
'0:04.716',0.590
'0:04.718',0.545
'0:04.720',0.490
'0:04.722',0.515
'0:04.724',0.490
'0:04.726',0.475
'0:04.728',0.455
'0:04.730',0.500
'0:04.732',0.550
'0:04.734',0.640
'0:04.736',0.600
'0:04.738',0.560
'0:04.740',0.515
'0:04.742',0.550
'0:04.744',0.505
'0:04.746',0.525
'0:04.748',0.490
'0:04.750',0.510
'0:04.752',0.585
'0:04.754',0.620
'0:04.756',0.600
'0:04.758',0.650
'0:04.760',0.595
'0:04.762',0.470
'0:04.764',0.485
'0:04.766',0.495
'0:04.768',0.495
'0:04.770',0.595
'0:04.772',0.620
'0:04.774',0.605
'0:04.776',0.615
'0:04.778',0.595
'0:04.780',0.540
'0:04.782',0.490
'0:04.784',0.475
'0:04.786',0.450
'0:04.788',0.485
'0:04.790',0.535
'0:04.792',0.585
'0:04.794',0.615
'0:04.796',0.595
'0:04.798',0.645
'0:04.800',0.540
'0:04.802',0.505
'0:04.804',0.525
'0:04.806',0.510
'0:04.808',0.520
'0:04.810',0.500
'0:04.812',0.570
'0:04.814',0.645
'0:04.816',0.670
'0:04.818',0.575
'0:04.820',0.520
'0:04.822',0.540
'0:04.824',0.575
'0:04.826',0.525
'0:04.828',0.540
'0:04.830',0.550
'0:04.832',0.645
'0:04.834',0.655
'0:04.836',0.645
'0:04.838',0.635
'0:04.840',0.620
'0:04.842',0.545
'0:04.844',0.520
'0:04.846',0.490
'0:04.848',0.545
'0:04.850',0.640
'0:04.852',0.660
'0:04.854',0.655
'0:04.856',0.700
'0:04.858',0.660
'0:04.860',0.615
'0:04.862',0.545
'0:04.864',0.545
'0:04.866',0.555
'0:04.868',0.620
'0:04.870',0.705
'0:04.872',0.735
'0:04.874',0.725
'0:04.876',0.745
'0:04.878',0.665
'0:04.880',0.645
'0:04.882',0.650
'0:04.884',0.650
'0:04.886',0.635
'0:04.888',0.670
'0:04.890',0.665
'0:04.892',0.780
'0:04.894',0.745
'0:04.896',0.785
'0:04.898',0.730
'0:04.900',0.720
'0:04.902',0.670
'0:04.904',0.645
'0:04.906',0.675
'0:04.908',0.690
'0:04.910',0.695
'0:04.912',0.775
'0:04.914',0.775
'0:04.916',0.725
'0:04.918',0.685
'0:04.920',0.645
'0:04.922',0.640
'0:04.924',0.590
'0:04.926',0.615
'0:04.928',0.655
'0:04.930',0.655
'0:04.932',0.675
'0:04.934',0.655
'0:04.936',0.665
'0:04.938',0.675
'0:04.940',0.595
'0:04.942',0.530
'0:04.944',0.545
'0:04.946',0.500
'0:04.948',0.470
'0:04.950',0.535
'0:04.952',0.640
'0:04.954',0.590
'0:04.956',0.630
'0:04.958',0.520
'0:04.960',0.450
'0:04.962',0.390
'0:04.964',0.350
'0:04.966',0.400
'0:04.968',0.485
'0:04.970',0.500
'0:04.972',0.565
'0:04.974',0.515
'0:04.976',0.505
'0:04.978',0.510
'0:04.980',0.400
'0:04.982',0.380
'0:04.984',0.405
'0:04.986',0.320
'0:04.988',0.415
'0:04.990',0.490
'0:04.992',0.460
'0:04.994',0.470
'0:04.996',0.445
'0:04.998',0.435
'0:05.000',0.395
'0:05.002',0.375
'0:05.004',0.340
'0:05.006',0.340
'0:05.008',0.445
'0:05.010',0.410
'0:05.012',0.485
'0:05.014',0.515
'0:05.016',0.445
'0:05.018',0.375
'0:05.020',0.385
'0:05.022',0.340
'0:05.024',0.340
'0:05.026',0.355
'0:05.028',0.375
'0:05.030',0.400
'0:05.032',0.485
'0:05.034',0.445
'0:05.036',0.445
'0:05.038',0.395
'0:05.040',0.375
'0:05.042',0.325
'0:05.044',0.320
'0:05.046',0.360
'0:05.048',0.365
'0:05.050',0.435
'0:05.052',0.470
'0:05.054',0.425
'0:05.056',0.450
'0:05.058',0.395
'0:05.060',0.350
'0:05.062',0.335
'0:05.064',0.330
'0:05.066',0.305
'0:05.068',0.335
'0:05.070',0.360
'0:05.072',0.485
'0:05.074',0.465
'0:05.076',0.415
'0:05.078',0.325
'0:05.080',0.355
'0:05.082',0.315
'0:05.084',0.365
'0:05.086',0.385
'0:05.088',0.380
'0:05.090',0.440
'0:05.092',0.425
'0:05.094',0.425
'0:05.096',0.420
'0:05.098',0.365
'0:05.100',0.395
'0:05.102',0.360
'0:05.104',0.310
'0:05.106',0.290
'0:05.108',0.310
'0:05.110',0.370
'0:05.112',0.480
'0:05.114',0.470
'0:05.116',0.430
'0:05.118',0.360
'0:05.120',0.315
'0:05.122',0.320
'0:05.124',0.315
'0:05.126',0.300
'0:05.128',0.355
'0:05.130',0.450
'0:05.132',0.450
'0:05.134',0.455
'0:05.136',0.375
'0:05.138',0.370
'0:05.140',0.290
'0:05.142',0.250
'0:05.144',0.285
'0:05.146',0.325
'0:05.148',0.320
'0:05.150',0.420
'0:05.152',0.310
'0:05.154',0.390
'0:05.156',0.350
'0:05.158',0.385
'0:05.160',0.365
'0:05.162',0.330
'0:05.164',0.295
'0:05.166',0.280
'0:05.168',0.275
'0:05.170',0.400
'0:05.172',0.450
'0:05.174',0.375
'0:05.176',0.300
'0:05.178',0.340
'0:05.180',0.285
'0:05.182',0.245
'0:05.184',0.245
'0:05.186',0.265
'0:05.188',0.310
'0:05.190',0.365
'0:05.192',0.325
'0:05.194',0.360
'0:05.196',0.340
'0:05.198',0.340
'0:05.200',0.270
'0:05.202',0.235
'0:05.204',0.240
'0:05.206',0.305
'0:05.208',0.325
'0:05.210',0.430
'0:05.212',0.350
'0:05.214',0.340
'0:05.216',0.275
'0:05.218',0.215
'0:05.220',0.245
'0:05.222',0.240
'0:05.224',0.255
'0:05.226',0.250
'0:05.228',0.320
'0:05.230',0.330
'0:05.232',0.360
'0:05.234',0.350
'0:05.236',0.290
'0:05.238',0.265
'0:05.240',0.190
'0:05.242',0.250
'0:05.244',0.215
'0:05.246',0.215
'0:05.248',0.355
'0:05.250',0.345
'0:05.252',0.315
'0:05.254',0.285
'0:05.256',0.265
'0:05.258',0.260
'0:05.260',0.210
'0:05.262',0.165
'0:05.264',0.250
'0:05.266',0.195
'0:05.268',0.255
'0:05.270',0.340
'0:05.272',0.335
'0:05.274',0.315
'0:05.276',0.275
'0:05.278',0.255
'0:05.280',0.185
'0:05.282',0.170
'0:05.284',0.245
'0:05.286',0.280
'0:05.288',0.310
'0:05.290',0.290
'0:05.292',0.345
'0:05.294',0.280
'0:05.296',0.265
'0:05.298',0.245
'0:05.300',0.170
'0:05.302',0.110
'0:05.304',0.150
'0:05.306',0.245
'0:05.308',0.305
'0:05.310',0.315
'0:05.312',0.305
'0:05.314',0.305
'0:05.316',0.200
'0:05.318',0.240
'0:05.320',0.200
'0:05.322',0.185
'0:05.324',0.200
'0:05.326',0.240
'0:05.328',0.230
'0:05.330',0.270
'0:05.332',0.275
'0:05.334',0.265
'0:05.336',0.295
'0:05.338',0.240
'0:05.340',0.160
'0:05.342',0.145
'0:05.344',0.205
'0:05.346',0.225
'0:05.348',0.240
'0:05.350',0.265
'0:05.352',0.245
'0:05.354',0.220
'0:05.356',0.190
'0:05.358',0.170
'0:05.360',0.165
'0:05.362',0.180
'0:05.364',0.190
'0:05.366',0.200
'0:05.368',0.230
'0:05.370',0.245
'0:05.372',0.300
'0:05.374',0.285
'0:05.376',0.240
'0:05.378',0.165
'0:05.380',0.220
'0:05.382',0.145
'0:05.384',0.120
'0:05.386',0.190
'0:05.388',0.240
'0:05.390',0.235
'0:05.392',0.235
'0:05.394',0.270
'0:05.396',0.250
'0:05.398',0.215
'0:05.400',0.170
'0:05.402',0.145
'0:05.404',0.190
'0:05.406',0.190
'0:05.408',0.255
'0:05.410',0.275
'0:05.412',0.265
'0:05.414',0.260
'0:05.416',0.185
'0:05.418',0.120
'0:05.420',0.135
'0:05.422',0.215
'0:05.424',0.200
'0:05.426',0.215
'0:05.428',0.310
'0:05.430',0.245
'0:05.432',0.235
'0:05.434',0.275
'0:05.436',0.205
'0:05.438',0.140
'0:05.440',0.220
'0:05.442',0.155
'0:05.444',0.165
'0:05.446',0.230
'0:05.448',0.330
'0:05.450',0.285
'0:05.452',0.265
'0:05.454',0.230
'0:05.456',0.260
'0:05.458',0.150
'0:05.460',0.145
'0:05.462',0.145
'0:05.464',0.170
'0:05.466',0.190
'0:05.468',0.270
'0:05.470',0.265
'0:05.472',0.265
'0:05.474',0.220
'0:05.476',0.205
'0:05.478',0.155
'0:05.480',0.075
'0:05.482',0.065
'0:05.484',0.140
'0:05.486',0.175
'0:05.488',0.185
'0:05.490',0.220
'0:05.492',0.235
'0:05.494',0.150
'0:05.496',0.085
'0:05.498',0.080
'0:05.500',0.135
'0:05.502',0.160
'0:05.504',0.125
'0:05.506',0.165
'0:05.508',0.195
'0:05.510',0.165
'0:05.512',0.195
'0:05.514',0.140
'0:05.516',0.165
'0:05.518',0.085
'0:05.520',0.095
'0:05.522',0.020
'0:05.524',0.095
'0:05.526',0.140
'0:05.528',0.160
'0:05.530',0.210
'0:05.532',0.180
'0:05.534',0.145
'0:05.536',0.125
'0:05.538',0.075
'0:05.540',0.090
'0:05.542',0.070
'0:05.544',0.110
'0:05.546',0.100
'0:05.548',0.195
'0:05.550',0.195
'0:05.552',0.170
'0:05.554',0.160
'0:05.556',0.170
'0:05.558',0.170
'0:05.560',0.270
'0:05.562',0.300
'0:05.564',0.430
'0:05.566',0.555
'0:05.568',0.595
'0:05.570',0.690
'0:05.572',0.735
'0:05.574',0.605
'0:05.576',0.525
'0:05.578',0.330
'0:05.580',0.315
'0:05.582',0.270
'0:05.584',0.295
'0:05.586',0.165
'0:05.588',0.065
'0:05.590',-0.115
'0:05.592',-0.140
'0:05.594',-0.190
'0:05.596',-0.095
'0:05.598',-0.110
'0:05.600',-0.105
'0:05.602',-0.135
'0:05.604',-0.020
'0:05.606',0.010
'0:05.608',0.070
'0:05.610',0.075
'0:05.612',0.065
'0:05.614',0.085
'0:05.616',0.055
'0:05.618',0.000
'0:05.620',0.060
'0:05.622',0.090
'0:05.624',0.070
'0:05.626',0.100
'0:05.628',0.130
'0:05.630',0.255
'0:05.632',0.190
'0:05.634',0.135
'0:05.636',0.175
'0:05.638',0.115
'0:05.640',0.020
'0:05.642',0.060
'0:05.644',0.160
'0:05.646',0.220
'0:05.648',0.200
'0:05.650',0.185
'0:05.652',0.180
'0:05.654',0.170
'0:05.656',0.090
'0:05.658',0.060
'0:05.660',0.025
'0:05.662',0.055
'0:05.664',0.160
'0:05.666',0.220
'0:05.668',0.185
'0:05.670',0.155
'0:05.672',0.190
'0:05.674',0.105
'0:05.676',0.060
'0:05.678',0.045
'0:05.680',0.020
'0:05.682',0.080
'0:05.684',0.100
'0:05.686',0.225
'0:05.688',0.205
'0:05.690',0.210
'0:05.692',0.185
'0:05.694',0.160
'0:05.696',0.070
'0:05.698',0.090
'0:05.700',0.095
'0:05.702',0.095
'0:05.704',0.150
'0:05.706',0.205
'0:05.708',0.225
'0:05.710',0.195
'0:05.712',0.150
'0:05.714',0.140
'0:05.716',0.085
'0:05.718',0.085
'0:05.720',0.090
'0:05.722',0.155
'0:05.724',0.185
'0:05.726',0.160
'0:05.728',0.195
'0:05.730',0.205
'0:05.732',0.205
'0:05.734',0.165
'0:05.736',0.140
'0:05.738',0.085
'0:05.740',0.090
'0:05.742',0.140
'0:05.744',0.145
'0:05.746',0.200
'0:05.748',0.245
'0:05.750',0.215
'0:05.752',0.210
'0:05.754',0.170
'0:05.756',0.120
'0:05.758',0.155
'0:05.760',0.135
'0:05.762',0.195
'0:05.764',0.190
'0:05.766',0.220
'0:05.768',0.305
'0:05.770',0.255
'0:05.772',0.215
'0:05.774',0.240
'0:05.776',0.185
'0:05.778',0.160
'0:05.780',0.170
'0:05.782',0.220
'0:05.784',0.250
'0:05.786',0.310
'0:05.788',0.325
'0:05.790',0.340
'0:05.792',0.300
'0:05.794',0.260
'0:05.796',0.235
'0:05.798',0.250
'0:05.800',0.240
'0:05.802',0.210
'0:05.804',0.300
'0:05.806',0.360
'0:05.808',0.370
'0:05.810',0.350
'0:05.812',0.295
'0:05.814',0.285
'0:05.816',0.215
'0:05.818',0.275
'0:05.820',0.210
'0:05.822',0.275
'0:05.824',0.295
'0:05.826',0.395
'0:05.828',0.335
'0:05.830',0.315
'0:05.832',0.260
'0:05.834',0.265
'0:05.836',0.190
'0:05.838',0.190
'0:05.840',0.195
'0:05.842',0.245
'0:05.844',0.245
'0:05.846',0.285
'0:05.848',0.265
'0:05.850',0.245
'0:05.852',0.190
'0:05.854',0.175
'0:05.856',0.080
'0:05.858',0.045
'0:05.860',0.050
'0:05.862',0.080
'0:05.864',0.160
'0:05.866',0.180
'0:05.868',0.140
'0:05.870',0.165
'0:05.872',0.105
'0:05.874',0.090
'0:05.876',-0.010
'0:05.878',-0.025
'0:05.880',0.035
'0:05.882',0.095
'0:05.884',0.060
'0:05.886',0.075
'0:05.888',0.150
'0:05.890',0.145
'0:05.892',0.095
'0:05.894',0.050
'0:05.896',-0.025
'0:05.898',-0.030
'0:05.900',-0.040
'0:05.902',0.060
'0:05.904',0.075
'0:05.906',0.110
'0:05.908',0.110
'0:05.910',0.095
'0:05.912',0.015
'0:05.914',0.050
'0:05.916',-0.015
'0:05.918',-0.065
'0:05.920',-0.035
'0:05.922',0.010
'0:05.924',0.030
'0:05.926',0.085
'0:05.928',0.055
'0:05.930',0.090
'0:05.932',0.050
'0:05.934',0.015
'0:05.936',0.005
'0:05.938',-0.025
'0:05.940',-0.040
'0:05.942',-0.015
'0:05.944',0.055
'0:05.946',0.075
'0:05.948',0.105
'0:05.950',0.075
'0:05.952',0.030
'0:05.954',-0.010
'0:05.956',-0.025
'0:05.958',-0.010
'0:05.960',-0.010
'0:05.962',-0.010
'0:05.964',0.025
'0:05.966',0.075
'0:05.968',0.150
'0:05.970',0.065
'0:05.972',-0.010
'0:05.974',-0.010
'0:05.976',-0.020
'0:05.978',-0.025
'0:05.980',-0.030
'0:05.982',0.035
'0:05.984',0.090
'0:05.986',0.100
'0:05.988',0.110
'0:05.990',0.080
'0:05.992',0.040
'0:05.994',-0.030
'0:05.996',-0.045
'0:05.998',-0.040
'0:06.000',0.005
'0:06.002',0.060
'0:06.004',0.095
'0:06.006',0.045
'0:06.008',0.070
'0:06.010',0.070
'0:06.012',0.040
'0:06.014',0.035
'0:06.016',-0.025
'0:06.018',0.015
'0:06.020',-0.015
'0:06.022',0.040
'0:06.024',0.115
'0:06.026',0.130
'0:06.028',0.090
'0:06.030',0.040
'0:06.032',0.025
'0:06.034',0.005
'0:06.036',-0.055
'0:06.038',-0.070
'0:06.040',-0.030
'0:06.042',0.075
'0:06.044',0.100
'0:06.046',0.095
'0:06.048',0.085
'0:06.050',0.065
'0:06.052',0.025
'0:06.054',-0.020
'0:06.056',-0.040
'0:06.058',-0.005
'0:06.060',-0.005
'0:06.062',-0.005
'0:06.064',0.070
'0:06.066',0.095
'0:06.068',0.130
'0:06.070',0.060
'0:06.072',0.050
'0:06.074',0.000
'0:06.076',-0.060
'0:06.078',-0.020
'0:06.080',0.055
'0:06.082',0.085
'0:06.084',0.075
'0:06.086',0.085
'0:06.088',0.085
'0:06.090',0.065
'0:06.092',0.025
'0:06.094',0.010
'0:06.096',0.000
'0:06.098',-0.010
'0:06.100',-0.030
'0:06.102',0.010
'0:06.104',0.105
'0:06.106',0.110
'0:06.108',0.095
'0:06.110',0.070
'0:06.112',-0.050
'0:06.114',-0.060
'0:06.116',-0.020
'0:06.118',-0.050
'0:06.120',-0.025
'0:06.122',0.040
'0:06.124',0.080
'0:06.126',0.130
'0:06.128',0.090
'0:06.130',0.075
'0:06.132',0.030
'0:06.134',-0.025
'0:06.136',-0.080
'0:06.138',-0.065
'0:06.140',-0.035
'0:06.142',0.015
'0:06.144',0.090
'0:06.146',0.090
'0:06.148',0.090
'0:06.150',0.035
'0:06.152',0.070
'0:06.154',-0.050
'0:06.156',-0.020
'0:06.158',0.005
'0:06.160',0.035
'0:06.162',0.015
'0:06.164',0.065
'0:06.166',0.050
'0:06.168',0.040
'0:06.170',0.095
'0:06.172',0.035
'0:06.174',-0.045
'0:06.176',-0.075
'0:06.178',-0.010
'0:06.180',0.045
'0:06.182',0.035
'0:06.184',0.085
'0:06.186',0.100
'0:06.188',0.070
'0:06.190',0.035
'0:06.192',-0.030
'0:06.194',-0.055
'0:06.196',-0.065
'0:06.198',-0.020
'0:06.200',0.030
'0:06.202',0.055
'0:06.204',0.125
'0:06.206',0.125
'0:06.208',0.100
'0:06.210',0.050
'0:06.212',-0.035
'0:06.214',-0.070
'0:06.216',-0.020
'0:06.218',-0.010
'0:06.220',-0.005
'0:06.222',0.040
'0:06.224',0.130
'0:06.226',0.155
'0:06.228',0.085
'0:06.230',0.070
'0:06.232',0.025
'0:06.234',-0.010
'0:06.236',-0.030
'0:06.238',-0.100
'0:06.240',0.040
'0:06.242',0.110
'0:06.244',0.140
'0:06.246',0.150
'0:06.248',0.165
'0:06.250',0.040
'0:06.252',0.055
'0:06.254',0.035
'0:06.256',-0.020
'0:06.258',0.025
'0:06.260',0.090
'0:06.262',0.095
'0:06.264',0.110
'0:06.266',0.145
'0:06.268',0.095
'0:06.270',0.045
'0:06.272',-0.070
'0:06.274',-0.070
'0:06.276',-0.065
'0:06.278',0.005
'0:06.280',0.055
'0:06.282',0.100
'0:06.284',0.070
'0:06.286',0.050
'0:06.288',0.040
'0:06.290',-0.030
'0:06.292',-0.070
'0:06.294',-0.085
'0:06.296',-0.025
'0:06.298',-0.065
'0:06.300',-0.030
'0:06.302',0.045
'0:06.304',0.065
'0:06.306',0.035
'0:06.308',0.020
'0:06.310',0.000
'0:06.312',-0.030
'0:06.314',-0.050
'0:06.316',-0.025
'0:06.318',-0.030
'0:06.320',0.040
'0:06.322',0.085
'0:06.324',0.100
'0:06.326',0.070
'0:06.328',-0.015
'0:06.330',-0.010
'0:06.332',-0.070
'0:06.334',-0.055
'0:06.336',-0.060
'0:06.338',-0.050
'0:06.340',0.010
'0:06.342',0.060
'0:06.344',0.065
'0:06.346',0.030
'0:06.348',0.030
'0:06.350',0.010
'0:06.352',-0.110
'0:06.354',-0.095
'0:06.356',-0.080
'0:06.358',-0.050
'0:06.360',-0.040
'0:06.362',0.040
'0:06.364',0.095
'0:06.366',0.180
'0:06.368',0.165
'0:06.370',0.210
'0:06.372',0.225
'0:06.374',0.285
'0:06.376',0.345
'0:06.378',0.455
'0:06.380',0.520
'0:06.382',0.535
'0:06.384',0.430
'0:06.386',0.305
'0:06.388',0.265
'0:06.390',0.185
'0:06.392',0.080
'0:06.394',-0.020
'0:06.396',-0.135
'0:06.398',-0.265
'0:06.400',-0.250
'0:06.402',-0.165
'0:06.404',-0.180
'0:06.406',-0.145
'0:06.408',-0.155
'0:06.410',-0.210
'0:06.412',-0.265
'0:06.414',-0.260
'0:06.416',-0.250
'0:06.418',-0.145
'0:06.420',-0.115
'0:06.422',-0.005
'0:06.424',-0.015
'0:06.426',-0.010
'0:06.428',-0.025
'0:06.430',0.005
'0:06.432',-0.085
'0:06.434',-0.045
'0:06.436',-0.065
'0:06.438',-0.010
'0:06.440',0.000
'0:06.442',0.085
'0:06.444',0.115
'0:06.446',0.080
'0:06.448',0.035
'0:06.450',-0.050
'0:06.452',-0.035
'0:06.454',0.010
'0:06.456',0.020
'0:06.458',0.010
'0:06.460',0.030
'0:06.462',0.140
'0:06.464',0.135
'0:06.466',0.110
'0:06.468',0.075
'0:06.470',0.030
'0:06.472',-0.025
'0:06.474',-0.040
'0:06.476',-0.005
'0:06.478',0.020
'0:06.480',0.020
'0:06.482',0.075
'0:06.484',0.095
'0:06.486',0.130
'0:06.488',0.060
'0:06.490',0.015
'0:06.492',0.010
'0:06.494',0.000
'0:06.496',0.000
'0:06.498',0.005
'0:06.500',0.035
'0:06.502',0.095
'0:06.504',0.140
'0:06.506',0.095
'0:06.508',0.035
'0:06.510',0.035
'0:06.512',0.020
'0:06.514',0.020
'0:06.516',0.020
'0:06.518',0.040
'0:06.520',0.070
'0:06.522',0.100
'0:06.524',0.150
'0:06.526',0.160
'0:06.528',0.045
'0:06.530',0.045
'0:06.532',0.050
'0:06.534',0.005
'0:06.536',-0.005
'0:06.538',0.075
'0:06.540',0.130
'0:06.542',0.185
'0:06.544',0.195
'0:06.546',0.160
'0:06.548',0.080
'0:06.550',0.040
'0:06.552',0.045
'0:06.554',0.050
'0:06.556',0.060
'0:06.558',0.100
'0:06.560',0.175
'0:06.562',0.190
'0:06.564',0.165
'0:06.566',0.185
'0:06.568',0.155
'0:06.570',0.070
'0:06.572',0.085
'0:06.574',0.075
'0:06.576',0.140
'0:06.578',0.150
'0:06.580',0.185
'0:06.582',0.225
'0:06.584',0.260
'0:06.586',0.235
'0:06.588',0.215
'0:06.590',0.150
'0:06.592',0.110
'0:06.594',0.155
'0:06.596',0.195
'0:06.598',0.230
'0:06.600',0.290
'0:06.602',0.290
'0:06.604',0.315
'0:06.606',0.285
'0:06.608',0.260
'0:06.610',0.190
'0:06.612',0.215
'0:06.614',0.245
'0:06.616',0.275
'0:06.618',0.285
'0:06.620',0.335
'0:06.622',0.335
'0:06.624',0.345
'0:06.626',0.325
'0:06.628',0.265
'0:06.630',0.230
'0:06.632',0.180
'0:06.634',0.170
'0:06.636',0.195
'0:06.638',0.205
'0:06.640',0.310
'0:06.642',0.315
'0:06.644',0.260
'0:06.646',0.260
'0:06.648',0.240
'0:06.650',0.140
'0:06.652',0.115
'0:06.654',0.110
'0:06.656',0.145
'0:06.658',0.165
'0:06.660',0.225
'0:06.662',0.190
'0:06.664',0.205
'0:06.666',0.170
'0:06.668',0.140
'0:06.670',0.025
'0:06.672',0.040
'0:06.674',-0.030
'0:06.676',0.040
'0:06.678',0.075
'0:06.680',0.130
'0:06.682',0.115
'0:06.684',0.090
'0:06.686',0.065
'0:06.688',0.000
'0:06.690',-0.015
'0:06.692',-0.015
'0:06.694',0.015
'0:06.696',0.020
'0:06.698',0.020
'0:06.700',0.100
'0:06.702',0.125
'0:06.704',0.135
'0:06.706',0.020
'0:06.708',0.010
'0:06.710',-0.080
'0:06.712',-0.050
'0:06.714',-0.030
'0:06.716',-0.035
'0:06.718',0.000
'0:06.720',0.055
'0:06.722',0.050
'0:06.724',0.050
'0:06.726',0.035
'0:06.728',0.025
'0:06.730',-0.035
'0:06.732',0.005
'0:06.734',0.010
'0:06.736',-0.035
'0:06.738',0.030
'0:06.740',0.085
'0:06.742',0.050
'0:06.744',0.050
'0:06.746',0.035
'0:06.748',0.005
'0:06.750',-0.080
'0:06.752',-0.075
'0:06.754',-0.075
'0:06.756',0.040
'0:06.758',0.060
'0:06.760',0.075
'0:06.762',0.085
'0:06.764',0.065
'0:06.766',0.030
'0:06.768',-0.020
'0:06.770',-0.090
'0:06.772',-0.080
'0:06.774',-0.030
'0:06.776',0.100
'0:06.778',0.055
'0:06.780',0.065
'0:06.782',0.080
'0:06.784',0.070
'0:06.786',-0.010
'0:06.788',-0.015
'0:06.790',-0.040
'0:06.792',-0.050
'0:06.794',-0.030
'0:06.796',0.005
'0:06.798',0.070
'0:06.800',0.095
'0:06.802',0.095
'0:06.804',0.100
'0:06.806',0.045
'0:06.808',0.010
'0:06.810',-0.020
'0:06.812',-0.045
'0:06.814',0.005
'0:06.816',0.075
'0:06.818',0.120
'0:06.820',0.095
'0:06.822',0.065
'0:06.824',0.085
'0:06.826',0.050
'0:06.828',-0.020
'0:06.830',-0.035
'0:06.832',-0.010
'0:06.834',0.015
'0:06.836',0.040
'0:06.838',0.145
'0:06.840',0.130
'0:06.842',0.095
'0:06.844',0.095
'0:06.846',0.000
'0:06.848',0.010
'0:06.850',0.000
'0:06.852',-0.060
'0:06.854',-0.035
'0:06.856',0.100
'0:06.858',0.115
'0:06.860',0.100
'0:06.862',0.060
'0:06.864',0.095
'0:06.866',0.070
'0:06.868',0.020
'0:06.870',-0.020
'0:06.872',-0.025
'0:06.874',0.020
'0:06.876',0.045
'0:06.878',0.095
'0:06.880',0.050
'0:06.882',0.105
'0:06.884',0.060
'0:06.886',0.020
'0:06.888',-0.015
'0:06.890',-0.020
'0:06.892',-0.010
'0:06.894',0.015
'0:06.896',0.030
'0:06.898',0.115
'0:06.900',0.080
'0:06.902',0.070
'0:06.904',0.080
'0:06.906',-0.005
'0:06.908',-0.020
'0:06.910',-0.020
'0:06.912',-0.080
'0:06.914',0.000
'0:06.916',0.035
'0:06.918',0.130
'0:06.920',0.100
'0:06.922',0.050
'0:06.924',0.050
'0:06.926',0.045
'0:06.928',0.005
'0:06.930',-0.025
'0:06.932',-0.025
'0:06.934',-0.005
'0:06.936',0.015
'0:06.938',0.115
'0:06.940',0.155
'0:06.942',0.075
'0:06.944',0.060
'0:06.946',0.030
'0:06.948',-0.005
'0:06.950',0.005
'0:06.952',-0.005
'0:06.954',0.020
'0:06.956',0.030
'0:06.958',0.055
'0:06.960',0.075
'0:06.962',0.125
'0:06.964',0.075
'0:06.966',0.030
'0:06.968',-0.030
'0:06.970',0.010
'0:06.972',-0.020
'0:06.974',0.030
'0:06.976',0.080
'0:06.978',0.110
'0:06.980',0.100
'0:06.982',0.105
'0:06.984',0.045
'0:06.986',0.005
'0:06.988',-0.060
'0:06.990',0.010
'0:06.992',-0.005
'0:06.994',0.005
'0:06.996',0.045
'0:06.998',0.095
'0:07.000',0.125
'0:07.002',0.130
'0:07.004',0.110
'0:07.006',0.075
'0:07.008',0.020
'0:07.010',0.065
'0:07.012',0.055
'0:07.014',0.095
'0:07.016',0.080
'0:07.018',0.155
'0:07.020',0.155
'0:07.022',0.115
'0:07.024',0.095
'0:07.026',0.130
'0:07.028',0.075
'0:07.030',0.000
'0:07.032',-0.005
'0:07.034',0.075
'0:07.036',0.075
'0:07.038',0.140
'0:07.040',0.115
'0:07.042',0.210
'0:07.044',0.085
'0:07.046',0.035
'0:07.048',-0.020
'0:07.050',0.000
'0:07.052',0.030
'0:07.054',0.035
'0:07.056',0.040
'0:07.058',0.085
'0:07.060',0.070
'0:07.062',0.120
'0:07.064',0.050
'0:07.066',-0.030
'0:07.068',-0.065
'0:07.070',-0.040
'0:07.072',0.005
'0:07.074',0.025
'0:07.076',0.075
'0:07.078',0.105
'0:07.080',0.085
'0:07.082',0.095
'0:07.084',0.040
'0:07.086',0.010
'0:07.088',0.015
'0:07.090',-0.010
'0:07.092',0.030
'0:07.094',-0.015
'0:07.096',0.035
'0:07.098',0.115
'0:07.100',0.105
'0:07.102',0.090
'0:07.104',0.030
'0:07.106',0.000
'0:07.108',-0.005
'0:07.110',-0.045
'0:07.112',-0.025
'0:07.114',0.075
'0:07.116',0.120
'0:07.118',0.130
'0:07.120',0.090
'0:07.122',0.080
'0:07.124',0.025
'0:07.126',-0.030
'0:07.128',-0.065
'0:07.130',-0.070
'0:07.132',-0.040
'0:07.134',0.025
'0:07.136',0.075
'0:07.138',0.135
'0:07.140',0.165
'0:07.142',0.220
'0:07.144',0.360
'0:07.146',0.290
'0:07.148',0.315
'0:07.150',0.465
'0:07.152',0.535
'0:07.154',0.540
'0:07.156',0.530
'0:07.158',0.460
'0:07.160',0.370
'0:07.162',0.265
'0:07.164',0.210
'0:07.166',0.085
'0:07.168',0.005
'0:07.170',-0.105
'0:07.172',-0.235
'0:07.174',-0.245
'0:07.176',-0.125
'0:07.178',-0.105
'0:07.180',-0.170
'0:07.182',-0.170
'0:07.184',-0.145
'0:07.186',-0.175
'0:07.188',-0.150
'0:07.190',-0.170
'0:07.192',-0.110
'0:07.194',-0.030
'0:07.196',0.060
'0:07.198',0.075
'0:07.200',0.085
'0:07.202',0.060
'0:07.204',0.045
'0:07.206',-0.015
'0:07.208',-0.010
'0:07.210',0.045
'0:07.212',0.020
'0:07.214',0.030
'0:07.216',0.100
'0:07.218',0.185
'0:07.220',0.120
'0:07.222',0.100
'0:07.224',0.025
'0:07.226',-0.005
'0:07.228',0.040
'0:07.230',0.035
'0:07.232',0.000
'0:07.234',0.075
'0:07.236',0.180
'0:07.238',0.115
'0:07.240',0.100
'0:07.242',0.085
'0:07.244',0.045
'0:07.246',0.005
'0:07.248',0.055
'0:07.250',0.025
'0:07.252',0.090
'0:07.254',0.095
'0:07.256',0.160
'0:07.258',0.155
'0:07.260',0.150
'0:07.262',0.105
'0:07.264',0.080
'0:07.266',0.035
'0:07.268',0.025
'0:07.270',0.050
'0:07.272',0.085
'0:07.274',0.065
'0:07.276',0.130
'0:07.278',0.165
'0:07.280',0.185
'0:07.282',0.130
'0:07.284',0.125
'0:07.286',0.010
'0:07.288',0.020
'0:07.290',0.015
'0:07.292',0.070
'0:07.294',0.120
'0:07.296',0.170
'0:07.298',0.175
'0:07.300',0.205
'0:07.302',0.140
'0:07.304',0.090
'0:07.306',0.015
'0:07.308',0.045
'0:07.310',0.065
'0:07.312',0.115
'0:07.314',0.140
'0:07.316',0.200
'0:07.318',0.160
'0:07.320',0.145
'0:07.322',0.150
'0:07.324',0.110
'0:07.326',0.055
'0:07.328',0.045
'0:07.330',0.080
'0:07.332',0.145
'0:07.334',0.160
'0:07.336',0.225
'0:07.338',0.210
'0:07.340',0.175
'0:07.342',0.135
'0:07.344',0.095
'0:07.346',0.070
'0:07.348',0.080
'0:07.350',0.080
'0:07.352',0.155
'0:07.354',0.255
'0:07.356',0.310
'0:07.358',0.295
'0:07.360',0.260
'0:07.362',0.190
'0:07.364',0.150
'0:07.366',0.160
'0:07.368',0.195
'0:07.370',0.230
'0:07.372',0.235
'0:07.374',0.285
'0:07.376',0.295
'0:07.378',0.285
'0:07.380',0.250
'0:07.382',0.280
'0:07.384',0.275
'0:07.386',0.250
'0:07.388',0.200
'0:07.390',0.205
'0:07.392',0.240
'0:07.394',0.300
'0:07.396',0.310
'0:07.398',0.285
'0:07.400',0.255
'0:07.402',0.185
'0:07.404',0.215
'0:07.406',0.170
'0:07.408',0.170
'0:07.410',0.230
'0:07.412',0.220
'0:07.414',0.290
'0:07.416',0.285
'0:07.418',0.285
'0:07.420',0.215
'0:07.422',0.140
'0:07.424',0.080
'0:07.426',0.110
'0:07.428',0.080
'0:07.430',0.090
'0:07.432',0.110
'0:07.434',0.160
'0:07.436',0.135
'0:07.438',0.190
'0:07.440',0.105
'0:07.442',0.085
'0:07.444',-0.015
'0:07.446',-0.020
'0:07.448',-0.045
'0:07.450',-0.060
'0:07.452',-0.045
'0:07.454',0.060
'0:07.456',0.075
'0:07.458',0.070
'0:07.460',0.015
'0:07.462',-0.060
'0:07.464',-0.055
'0:07.466',-0.105
'0:07.468',-0.090
'0:07.470',-0.050
'0:07.472',-0.025
'0:07.474',0.010
'0:07.476',0.015
'0:07.478',-0.025
'0:07.480',-0.050
'0:07.482',-0.040
'0:07.484',-0.095
'0:07.486',-0.115
'0:07.488',-0.130
'0:07.490',-0.080
'0:07.492',-0.065
'0:07.494',-0.025
'0:07.496',-0.025
'0:07.498',-0.015
'0:07.500',-0.020
'0:07.502',-0.065
'0:07.504',-0.160
'0:07.506',-0.195
'0:07.508',-0.200
'0:07.510',-0.150
'0:07.512',-0.105
'0:07.514',0.020
'0:07.516',-0.020
'0:07.518',-0.030
'0:07.520',-0.065
'0:07.522',-0.085
'0:07.524',-0.170
'0:07.526',-0.175
'0:07.528',-0.180
'0:07.530',-0.175
'0:07.532',-0.150
'0:07.534',-0.045
'0:07.536',-0.040
'0:07.538',-0.070
'0:07.540',-0.090
'0:07.542',-0.140
'0:07.544',-0.180
'0:07.546',-0.195
'0:07.548',-0.180
'0:07.550',-0.140
'0:07.552',-0.120
'0:07.554',-0.040
'0:07.556',-0.050
'0:07.558',-0.025
'0:07.560',-0.140
'0:07.562',-0.160
'0:07.564',-0.230
'0:07.566',-0.210
'0:07.568',-0.210
'0:07.570',-0.170
'0:07.572',-0.190
'0:07.574',-0.085
'0:07.576',-0.050
'0:07.578',-0.015
'0:07.580',-0.165
'0:07.582',-0.155
'0:07.584',-0.225
'0:07.586',-0.240
'0:07.588',-0.235
'0:07.590',-0.160
'0:07.592',-0.135
'0:07.594',-0.060
'0:07.596',-0.105
'0:07.598',-0.105
'0:07.600',-0.135
'0:07.602',-0.225
'0:07.604',-0.230
'0:07.606',-0.240
'0:07.608',-0.245
'0:07.610',-0.210
'0:07.612',-0.170
'0:07.614',-0.140
'0:07.616',-0.160
'0:07.618',-0.175
'0:07.620',-0.210
'0:07.622',-0.290
'0:07.624',-0.280
'0:07.626',-0.210
'0:07.628',-0.220
'0:07.630',-0.175
'0:07.632',-0.180
'0:07.634',-0.150
'0:07.636',-0.180
'0:07.638',-0.185
'0:07.640',-0.260
'0:07.642',-0.290
'0:07.644',-0.285
'0:07.646',-0.315
'0:07.648',-0.255
'0:07.650',-0.245
'0:07.652',-0.255
'0:07.654',-0.200
'0:07.656',-0.155
'0:07.658',-0.240
'0:07.660',-0.295
'0:07.662',-0.305
'0:07.664',-0.360
'0:07.666',-0.355
'0:07.668',-0.305
'0:07.670',-0.280
'0:07.672',-0.310
'0:07.674',-0.260
'0:07.676',-0.190
'0:07.678',-0.215
'0:07.680',-0.275
'0:07.682',-0.330
'0:07.684',-0.390
'0:07.686',-0.350
'0:07.688',-0.340
'0:07.690',-0.365
'0:07.692',-0.265
'0:07.694',-0.225
'0:07.696',-0.255
'0:07.698',-0.305
'0:07.700',-0.320
'0:07.702',-0.405
'0:07.704',-0.435
'0:07.706',-0.425
'0:07.708',-0.365
'0:07.710',-0.310
'0:07.712',-0.260
'0:07.714',-0.285
'0:07.716',-0.300
'0:07.718',-0.350
'0:07.720',-0.375
'0:07.722',-0.435
'0:07.724',-0.420
'0:07.726',-0.430
'0:07.728',-0.415
'0:07.730',-0.375
'0:07.732',-0.340
'0:07.734',-0.355
'0:07.736',-0.340
'0:07.738',-0.320
'0:07.740',-0.405
'0:07.742',-0.430
'0:07.744',-0.465
'0:07.746',-0.450
'0:07.748',-0.435
'0:07.750',-0.415
'0:07.752',-0.315
'0:07.754',-0.320
'0:07.756',-0.330
'0:07.758',-0.440
'0:07.760',-0.455
'0:07.762',-0.515
'0:07.764',-0.525
'0:07.766',-0.515
'0:07.768',-0.470
'0:07.770',-0.450
'0:07.772',-0.405
'0:07.774',-0.330
'0:07.776',-0.355
'0:07.778',-0.430
'0:07.780',-0.485
'0:07.782',-0.490
'0:07.784',-0.545
'0:07.786',-0.535
'0:07.788',-0.505
'0:07.790',-0.480
'0:07.792',-0.425
'0:07.794',-0.405
'0:07.796',-0.425
'0:07.798',-0.425
'0:07.800',-0.500
'0:07.802',-0.540
'0:07.804',-0.595
'0:07.806',-0.525
'0:07.808',-0.500
'0:07.810',-0.505
'0:07.812',-0.465
'0:07.814',-0.435
'0:07.816',-0.485
'0:07.818',-0.510
'0:07.820',-0.535
'0:07.822',-0.605
'0:07.824',-0.550
'0:07.826',-0.565
'0:07.828',-0.525
'0:07.830',-0.495
'0:07.832',-0.445
'0:07.834',-0.465
'0:07.836',-0.430
'0:07.838',-0.495
'0:07.840',-0.520
'0:07.842',-0.565
'0:07.844',-0.610
'0:07.846',-0.620
'0:07.848',-0.570
'0:07.850',-0.570
'0:07.852',-0.465
'0:07.854',-0.460
'0:07.856',-0.475
'0:07.858',-0.555
'0:07.860',-0.605
'0:07.862',-0.635
'0:07.864',-0.540
'0:07.866',-0.660
'0:07.868',-0.580
'0:07.870',-0.545
'0:07.872',-0.505
'0:07.874',-0.555
'0:07.876',-0.595
'0:07.878',-0.605
'0:07.880',-0.580
'0:07.882',-0.715
'0:07.884',-0.685
'0:07.886',-0.685
'0:07.888',-0.655
'0:07.890',-0.695
'0:07.892',-0.575
'0:07.894',-0.580
'0:07.896',-0.620
'0:07.898',-0.685
'0:07.900',-0.700
'0:07.902',-0.715
'0:07.904',-0.760
'0:07.906',-0.775
'0:07.908',-0.705
'0:07.910',-0.655
'0:07.912',-0.600
'0:07.914',-0.660
'0:07.916',-0.625
'0:07.918',-0.680
'0:07.920',-0.710
'0:07.922',-0.790
'0:07.924',-0.850
'0:07.926',-0.765
'0:07.928',-0.775
'0:07.930',-0.685
'0:07.932',-0.615
'0:07.934',-0.635
'0:07.936',-0.690
'0:07.938',-0.770
'0:07.940',-0.805
'0:07.942',-0.870
'0:07.944',-0.835
'0:07.946',-0.850
'0:07.948',-0.770
'0:07.950',-0.685
'0:07.952',-0.695
'0:07.954',-0.680
'0:07.956',-0.710
'0:07.958',-0.775
'0:07.960',-0.835
'0:07.962',-0.900
'0:07.964',-0.900
'0:07.966',-0.805
'0:07.968',-0.670
'0:07.970',-0.550
'0:07.972',-0.495
'0:07.974',-0.425
'0:07.976',-0.325
'0:07.978',-0.320
'0:07.980',-0.330
'0:07.982',-0.345
'0:07.984',-0.425
'0:07.986',-0.490
'0:07.988',-0.540
'0:07.990',-0.500
'0:07.992',-0.610
'0:07.994',-0.665
'0:07.996',-0.775
'0:07.998',-0.950
'0:08.000',-1.165
'0:08.002',-1.195
'0:08.004',-1.180
'0:08.006',-1.095
'0:08.008',-1.060
'0:08.010',-0.990
'0:08.012',-0.940
'0:08.014',-0.935
'0:08.016',-0.975
'0:08.018',-0.985
'0:08.020',-1.065
'0:08.022',-1.005
'0:08.024',-0.990
'0:08.026',-0.965
'0:08.028',-0.875
'0:08.030',-0.845
'0:08.032',-0.825
'0:08.034',-0.785
'0:08.036',-0.860
'0:08.038',-0.935
'0:08.040',-0.990
'0:08.042',-0.895
'0:08.044',-0.940
'0:08.046',-0.935
'0:08.048',-0.940
'0:08.050',-0.835
'0:08.052',-0.815
'0:08.054',-0.855
'0:08.056',-0.875
'0:08.058',-0.875
'0:08.060',-0.980
'0:08.062',-0.985
'0:08.064',-0.970
'0:08.066',-0.910
'0:08.068',-0.940
'0:08.070',-0.855
'0:08.072',-0.855
'0:08.074',-0.860
'0:08.076',-0.870
'0:08.078',-0.935
'0:08.080',-1.015
'0:08.082',-1.040
'0:08.084',-1.030
'0:08.086',-0.960
'0:08.088',-0.930
'0:08.090',-0.860
'0:08.092',-0.875
'0:08.094',-0.915
'0:08.096',-0.910
'0:08.098',-0.975
'0:08.100',-0.920
'0:08.102',-1.030
'0:08.104',-1.030
'0:08.106',-0.940
'0:08.108',-0.980
'0:08.110',-0.855
'0:08.112',-0.875
'0:08.114',-0.915
'0:08.116',-0.985
'0:08.118',-0.960
'0:08.120',-1.000
'0:08.122',-1.050
'0:08.124',-1.020
'0:08.126',-0.990
'0:08.128',-0.965
'0:08.130',-0.925
'0:08.132',-0.900
'0:08.134',-0.865
'0:08.136',-0.920
'0:08.138',-1.000
'0:08.140',-1.060
'0:08.142',-1.035
'0:08.144',-1.010
'0:08.146',-0.965
'0:08.148',-0.960
'0:08.150',-0.910
'0:08.152',-0.900
'0:08.154',-0.915
'0:08.156',-0.960
'0:08.158',-0.975
'0:08.160',-1.060
'0:08.162',-1.075
'0:08.164',-1.075
'0:08.166',-1.015
'0:08.168',-0.920
'0:08.170',-0.850
'0:08.172',-0.865
'0:08.174',-0.885
'0:08.176',-0.975
'0:08.178',-0.950
'0:08.180',-1.010
'0:08.182',-1.015
'0:08.184',-1.010
'0:08.186',-0.960
'0:08.188',-0.930
'0:08.190',-0.830
'0:08.192',-0.835
'0:08.194',-0.840
'0:08.196',-0.890
'0:08.198',-0.950
'0:08.200',-0.980
'0:08.202',-1.000
'0:08.204',-0.990
'0:08.206',-0.875
'0:08.208',-0.825
'0:08.210',-0.820
'0:08.212',-0.825
'0:08.214',-0.855
'0:08.216',-0.890
'0:08.218',-0.950
'0:08.220',-0.970
'0:08.222',-0.980
'0:08.224',-0.930
'0:08.226',-0.880
'0:08.228',-0.850
'0:08.230',-0.865
'0:08.232',-0.875
'0:08.234',-0.855
'0:08.236',-0.920
'0:08.238',-1.000
'0:08.240',-0.995
'0:08.242',-1.050
'0:08.244',-1.015
'0:08.246',-0.990
'0:08.248',-0.955
'0:08.250',-0.975
'0:08.252',-0.975
'0:08.254',-0.960
'0:08.256',-1.005
'0:08.258',-1.105
'0:08.260',-1.110
'0:08.262',-1.120
'0:08.264',-1.110
'0:08.266',-1.115
'0:08.268',-1.075
'0:08.270',-1.080
'0:08.272',-1.105
'0:08.274',-1.120
'0:08.276',-1.115
'0:08.278',-1.185
'0:08.280',-1.245
'0:08.282',-1.230
'0:08.284',-1.170
'0:08.286',-1.210
'0:08.288',-1.140
'0:08.290',-1.145
'0:08.292',-1.150
'0:08.294',-1.185
'0:08.296',-1.240
'0:08.298',-1.305
'0:08.300',-1.260
'0:08.302',-1.270
'0:08.304',-1.295
'0:08.306',-1.265
'0:08.308',-1.140
'0:08.310',-1.135
'0:08.312',-1.160
'0:08.314',-1.195
'0:08.316',-1.295
'0:08.318',-1.315
'0:08.320',-1.325
'0:08.322',-1.345
'0:08.324',-1.320
'0:08.326',-1.260
'0:08.328',-1.195
'0:08.330',-1.185
'0:08.332',-1.205
'0:08.334',-1.245
'0:08.336',-1.265
'0:08.338',-1.385
'0:08.340',-1.345
'0:08.342',-1.310
'0:08.344',-1.320
'0:08.346',-1.285
'0:08.348',-1.215
'0:08.350',-1.210
'0:08.352',-1.190
'0:08.354',-1.270
'0:08.356',-1.295
'0:08.358',-1.340
'0:08.360',-1.355
'0:08.362',-1.335
'0:08.364',-1.325
'0:08.366',-1.300
'0:08.368',-1.220
'0:08.370',-1.270
'0:08.372',-1.205
'0:08.374',-1.225
'0:08.376',-1.295
'0:08.378',-1.380
'0:08.380',-1.380
'0:08.382',-1.355
'0:08.384',-1.320
'0:08.386',-1.310
'0:08.388',-1.275
'0:08.390',-1.270
'0:08.392',-1.235
'0:08.394',-1.310
'0:08.396',-1.255
'0:08.398',-1.375
'0:08.400',-1.405
'0:08.402',-1.370
'0:08.404',-1.320
'0:08.406',-1.310
'0:08.408',-1.285
'0:08.410',-1.285
'0:08.412',-1.285
'0:08.414',-1.345
'0:08.416',-1.275
'0:08.418',-1.355
'0:08.420',-1.410
'0:08.422',-1.380
'0:08.424',-1.330
'0:08.426',-1.320
'0:08.428',-1.255
'0:08.430',-1.255
'0:08.432',-1.260
'0:08.434',-1.340
'0:08.436',-1.340
'0:08.438',-1.380
'0:08.440',-1.330
'0:08.442',-1.395
'0:08.444',-1.360
'0:08.446',-1.280
'0:08.448',-1.275
'0:08.450',-1.255
'0:08.452',-1.280
'0:08.454',-1.370
'0:08.456',-1.325
'0:08.458',-1.380
'0:08.460',-1.410
'0:08.462',-1.380
'0:08.464',-1.360
'0:08.466',-1.330
'0:08.468',-1.285
'0:08.470',-1.275
'0:08.472',-1.315
'0:08.474',-1.355
'0:08.476',-1.400
'0:08.478',-1.450
'0:08.480',-1.415
'0:08.482',-1.370
'0:08.484',-1.355
'0:08.486',-1.320
'0:08.488',-1.285
'0:08.490',-1.300
'0:08.492',-1.305
'0:08.494',-1.385
'0:08.496',-1.360
'0:08.498',-1.430
'0:08.500',-1.430
'0:08.502',-1.430
'0:08.504',-1.390
'0:08.506',-1.350
'0:08.508',-1.335
'0:08.510',-1.325
'0:08.512',-1.275
'0:08.514',-1.400
'0:08.516',-1.405
'0:08.518',-1.450
'0:08.520',-1.455
'0:08.522',-1.420
'0:08.524',-1.380
'0:08.526',-1.325
'0:08.528',-1.300
'0:08.530',-1.350
'0:08.532',-1.345
'0:08.534',-1.395
'0:08.536',-1.450
'0:08.538',-1.420
'0:08.540',-1.430
'0:08.542',-1.405
'0:08.544',-1.370
'0:08.546',-1.330
'0:08.548',-1.335
'0:08.550',-1.335
'0:08.552',-1.400
'0:08.554',-1.410
'0:08.556',-1.430
'0:08.558',-1.460
'0:08.560',-1.410
'0:08.562',-1.410
'0:08.564',-1.375
'0:08.566',-1.375
'0:08.568',-1.355
'0:08.570',-1.355
'0:08.572',-1.315
'0:08.574',-1.420
'0:08.576',-1.430
'0:08.578',-1.435
'0:08.580',-1.475
'0:08.582',-1.420
'0:08.584',-1.440
'0:08.586',-1.345
'0:08.588',-1.330
'0:08.590',-1.350
'0:08.592',-1.415
'0:08.594',-1.450
'0:08.596',-1.445
'0:08.598',-1.490
'0:08.600',-1.480
'0:08.602',-1.385
'0:08.604',-1.395
'0:08.606',-1.355
'0:08.608',-1.330
'0:08.610',-1.350
'0:08.612',-1.395
'0:08.614',-1.405
'0:08.616',-1.450
'0:08.618',-1.500
'0:08.620',-1.485
'0:08.622',-1.465
'0:08.624',-1.415
'0:08.626',-1.350
'0:08.628',-1.365
'0:08.630',-1.405
'0:08.632',-1.410
'0:08.634',-1.430
'0:08.636',-1.430
'0:08.638',-1.490
'0:08.640',-1.475
'0:08.642',-1.445
'0:08.644',-1.395
'0:08.646',-1.375
'0:08.648',-1.395
'0:08.650',-1.355
'0:08.652',-1.360
'0:08.654',-1.435
'0:08.656',-1.510
'0:08.658',-1.510
'0:08.660',-1.480
'0:08.662',-1.450
'0:08.664',-1.455
'0:08.666',-1.335
'0:08.668',-1.335
'0:08.670',-1.365
'0:08.672',-1.370
'0:08.674',-1.410
'0:08.676',-1.510
'0:08.678',-1.525
'0:08.680',-1.525
'0:08.682',-1.500
'0:08.684',-1.380
'0:08.686',-1.335
'0:08.688',-1.300
'0:08.690',-1.365
'0:08.692',-1.420
'0:08.694',-1.410
'0:08.696',-1.475
'0:08.698',-1.485
'0:08.700',-1.460
'0:08.702',-1.415
'0:08.704',-1.395
'0:08.706',-1.385
'0:08.708',-1.410
'0:08.710',-1.350
'0:08.712',-1.390
'0:08.714',-1.390
'0:08.716',-1.440
'0:08.718',-1.470
'0:08.720',-1.470
'0:08.722',-1.425
'0:08.724',-1.370
'0:08.726',-1.330
'0:08.728',-1.335
'0:08.730',-1.335
'0:08.732',-1.435
'0:08.734',-1.375
'0:08.736',-1.455
'0:08.738',-1.475
'0:08.740',-1.405
'0:08.742',-1.395
'0:08.744',-1.390
'0:08.746',-1.315
'0:08.748',-1.330
'0:08.750',-1.365
'0:08.752',-1.380
'0:08.754',-1.415
'0:08.756',-1.450
'0:08.758',-1.490
'0:08.760',-1.445
'0:08.762',-1.420
'0:08.764',-1.405
'0:08.766',-1.320
'0:08.768',-1.335
'0:08.770',-1.355
'0:08.772',-1.400
'0:08.774',-1.460
'0:08.776',-1.510
'0:08.778',-1.525
'0:08.780',-1.515
'0:08.782',-1.475
'0:08.784',-1.450
'0:08.786',-1.290
'0:08.788',-1.350
'0:08.790',-1.375
'0:08.792',-1.400
'0:08.794',-1.470
'0:08.796',-1.520
'0:08.798',-1.535
'0:08.800',-1.445
'0:08.802',-1.460
'0:08.804',-1.410
'0:08.806',-1.435
'0:08.808',-1.350
'0:08.810',-1.345
'0:08.812',-1.410
'0:08.814',-1.485
'0:08.816',-1.540
'0:08.818',-1.520
'0:08.820',-1.480
'0:08.822',-1.475
'0:08.824',-1.385
'0:08.826',-1.385
'0:08.828',-1.385
'0:08.830',-1.405
'0:08.832',-1.445
'0:08.834',-1.490
'0:08.836',-1.515
'0:08.838',-1.515
'0:08.840',-1.500
'0:08.842',-1.400
'0:08.844',-1.365
'0:08.846',-1.385
'0:08.848',-1.450
'0:08.850',-1.430
'0:08.852',-1.495
'0:08.854',-1.500
'0:08.856',-1.465
'0:08.858',-1.420
'0:08.860',-1.275
'0:08.862',-1.125
'0:08.864',-1.015
'0:08.866',-0.930
'0:08.868',-0.880
'0:08.870',-0.840
'0:08.872',-0.875
'0:08.874',-0.970
'0:08.876',-1.100
'0:08.878',-1.235
'0:08.880',-1.240
'0:08.882',-1.245
'0:08.884',-1.270
'0:08.886',-1.385
'0:08.888',-1.530
'0:08.890',-1.635
'0:08.892',-1.720
'0:08.894',-1.795
'0:08.896',-1.740
'0:08.898',-1.685
'0:08.900',-1.605
'0:08.902',-1.540
'0:08.904',-1.450
'0:08.906',-1.455
'0:08.908',-1.450
'0:08.910',-1.465
'0:08.912',-1.480
'0:08.914',-1.545
'0:08.916',-1.510
'0:08.918',-1.535
'0:08.920',-1.460
'0:08.922',-1.410
'0:08.924',-1.355
'0:08.926',-1.375
'0:08.928',-1.395
'0:08.930',-1.380
'0:08.932',-1.380
'0:08.934',-1.450
'0:08.936',-1.480
'0:08.938',-1.460
'0:08.940',-1.405
'0:08.942',-1.380
'0:08.944',-1.315
'0:08.946',-1.330
'0:08.948',-1.320
'0:08.950',-1.375
'0:08.952',-1.415
'0:08.954',-1.440
'0:08.956',-1.470
'0:08.958',-1.425
'0:08.960',-1.420
'0:08.962',-1.385
'0:08.964',-1.325
'0:08.966',-1.315
'0:08.968',-1.295
'0:08.970',-1.350
'0:08.972',-1.370
'0:08.974',-1.440
'0:08.976',-1.455
'0:08.978',-1.435
'0:08.980',-1.395
'0:08.982',-1.360
'0:08.984',-1.285
'0:08.986',-1.295
'0:08.988',-1.340
'0:08.990',-1.385
'0:08.992',-1.365
'0:08.994',-1.445
'0:08.996',-1.450
'0:08.998',-1.445
'0:09.000',-1.370
'0:09.002',-1.340
'0:09.004',-1.300
'0:09.006',-1.325
'0:09.008',-1.320
'0:09.010',-1.260
'0:09.012',-1.325
'0:09.014',-1.415
'0:09.016',-1.460
'0:09.018',-1.400
'0:09.020',-1.355
'0:09.022',-1.285
'0:09.024',-1.280
'0:09.026',-1.245
'0:09.028',-1.250
'0:09.030',-1.270
'0:09.032',-1.305
'0:09.034',-1.365
'0:09.036',-1.445
'0:09.038',-1.390
'0:09.040',-1.350
'0:09.042',-1.245
'0:09.044',-1.190
'0:09.046',-1.210
'0:09.048',-1.260
'0:09.050',-1.305
'0:09.052',-1.300
'0:09.054',-1.335
'0:09.056',-1.360
'0:09.058',-1.390
'0:09.060',-1.320
'0:09.062',-1.255
'0:09.064',-1.170
'0:09.066',-1.190
'0:09.068',-1.210
'0:09.070',-1.260
'0:09.072',-1.270
'0:09.074',-1.315
'0:09.076',-1.360
'0:09.078',-1.325
'0:09.080',-1.205
'0:09.082',-1.155
'0:09.084',-1.135
'0:09.086',-1.140
'0:09.088',-1.190
'0:09.090',-1.225
'0:09.092',-1.230
'0:09.094',-1.190
'0:09.096',-1.200
'0:09.098',-1.215
'0:09.100',-1.200
'0:09.102',-1.110
'0:09.104',-1.085
'0:09.106',-1.110
'0:09.108',-1.135
'0:09.110',-1.165
'0:09.112',-1.185
'0:09.114',-1.235
'0:09.116',-1.155
'0:09.118',-1.150
'0:09.120',-1.120
'0:09.122',-1.080
'0:09.124',-1.065
'0:09.126',-1.095
'0:09.128',-1.125
'0:09.130',-1.145
'0:09.132',-1.200
'0:09.134',-1.210
'0:09.136',-1.275
'0:09.138',-1.285
'0:09.140',-1.250
'0:09.142',-1.220
'0:09.144',-1.170
'0:09.146',-1.150
'0:09.148',-1.240
'0:09.150',-1.270
'0:09.152',-1.330
'0:09.154',-1.330
'0:09.156',-1.330
'0:09.158',-1.325
'0:09.160',-1.325
'0:09.162',-1.260
'0:09.164',-1.270
'0:09.166',-1.295
'0:09.168',-1.315
'0:09.170',-1.370
'0:09.172',-1.435
'0:09.174',-1.350
'0:09.176',-1.360
'0:09.178',-1.395
'0:09.180',-1.335
'0:09.182',-1.260
'0:09.184',-1.315
'0:09.186',-1.300
'0:09.188',-1.355
'0:09.190',-1.380
'0:09.192',-1.420
'0:09.194',-1.445
'0:09.196',-1.405
'0:09.198',-1.395
'0:09.200',-1.375
'0:09.202',-1.290
'0:09.204',-1.320
'0:09.206',-1.330
'0:09.208',-1.345
'0:09.210',-1.390
'0:09.212',-1.465
'0:09.214',-1.405
'0:09.216',-1.420
'0:09.218',-1.425
'0:09.220',-1.365
'0:09.222',-1.275
'0:09.224',-1.295
'0:09.226',-1.340
'0:09.228',-1.365
'0:09.230',-1.390
'0:09.232',-1.460
'0:09.234',-1.505
'0:09.236',-1.415
'0:09.238',-1.450
'0:09.240',-1.360
'0:09.242',-1.295
'0:09.244',-1.280
'0:09.246',-1.320
'0:09.248',-1.360
'0:09.250',-1.355
'0:09.252',-1.460
'0:09.254',-1.485
'0:09.256',-1.440
'0:09.258',-1.420
'0:09.260',-1.350
'0:09.262',-1.295
'0:09.264',-1.300
'0:09.266',-1.295
'0:09.268',-1.350
'0:09.270',-1.360
'0:09.272',-1.430
'0:09.274',-1.415
'0:09.276',-1.395
'0:09.278',-1.365
'0:09.280',-1.360
'0:09.282',-1.280
'0:09.284',-1.320
'0:09.286',-1.340
'0:09.288',-1.365
'0:09.290',-1.410
'0:09.292',-1.460
'0:09.294',-1.425
'0:09.296',-1.400
'0:09.298',-1.330
'0:09.300',-1.320
'0:09.302',-1.285
'0:09.304',-1.300
'0:09.306',-1.285
'0:09.308',-1.350
'0:09.310',-1.355
'0:09.312',-1.400
'0:09.314',-1.405
'0:09.316',-1.380
'0:09.318',-1.325
'0:09.320',-1.340
'0:09.322',-1.255
'0:09.324',-1.265
'0:09.326',-1.315
'0:09.328',-1.370
'0:09.330',-1.385
'0:09.332',-1.430
'0:09.334',-1.430
'0:09.336',-1.350
'0:09.338',-1.305
'0:09.340',-1.345
'0:09.342',-1.290
'0:09.344',-1.270
'0:09.346',-1.255
'0:09.348',-1.315
'0:09.350',-1.330
'0:09.352',-1.405
'0:09.354',-1.370
'0:09.356',-1.415
'0:09.358',-1.335
'0:09.360',-1.305
'0:09.362',-1.255
'0:09.364',-1.280
'0:09.366',-1.285
'0:09.368',-1.365
'0:09.370',-1.350
'0:09.372',-1.405
'0:09.374',-1.445
'0:09.376',-1.380
'0:09.378',-1.395
'0:09.380',-1.335
'0:09.382',-1.260
'0:09.384',-1.230
'0:09.386',-1.270
'0:09.388',-1.325
'0:09.390',-1.410
'0:09.392',-1.380
'0:09.394',-1.365
'0:09.396',-1.315
'0:09.398',-1.310
'0:09.400',-1.280
'0:09.402',-1.250
'0:09.404',-1.270
'0:09.406',-1.265
'0:09.408',-1.340
'0:09.410',-1.365
'0:09.412',-1.390
'0:09.414',-1.400
'0:09.416',-1.380
'0:09.418',-1.380
'0:09.420',-1.275
'0:09.422',-1.250
'0:09.424',-1.275
'0:09.426',-1.270
'0:09.428',-1.320
'0:09.430',-1.370
'0:09.432',-1.395
'0:09.434',-1.405
'0:09.436',-1.390
'0:09.438',-1.370
'0:09.440',-1.260
'0:09.442',-1.250
'0:09.444',-1.280
'0:09.446',-1.330
'0:09.448',-1.380
'0:09.450',-1.370
'0:09.452',-1.390
'0:09.454',-1.405
'0:09.456',-1.385
'0:09.458',-1.270
'0:09.460',-1.235
'0:09.462',-1.300
'0:09.464',-1.230
'0:09.466',-1.300
'0:09.468',-1.330
'0:09.470',-1.375
'0:09.472',-1.405
'0:09.474',-1.375
'0:09.476',-1.310
'0:09.478',-1.320
'0:09.480',-1.275
'0:09.482',-1.250
'0:09.484',-1.240
'0:09.486',-1.280
'0:09.488',-1.330
'0:09.490',-1.435
'0:09.492',-1.430
'0:09.494',-1.390
'0:09.496',-1.405
'0:09.498',-1.340
'0:09.500',-1.240
'0:09.502',-1.295
'0:09.504',-1.295
'0:09.506',-1.320
'0:09.508',-1.295
'0:09.510',-1.400
'0:09.512',-1.380
'0:09.514',-1.395
'0:09.516',-1.395
'0:09.518',-1.350
'0:09.520',-1.275
'0:09.522',-1.215
'0:09.524',-1.270
'0:09.526',-1.325
'0:09.528',-1.335
'0:09.530',-1.390
'0:09.532',-1.400
'0:09.534',-1.430
'0:09.536',-1.375
'0:09.538',-1.335
'0:09.540',-1.255
'0:09.542',-1.275
'0:09.544',-1.245
'0:09.546',-1.295
'0:09.548',-1.335
'0:09.550',-1.415
'0:09.552',-1.395
'0:09.554',-1.395
'0:09.556',-1.380
'0:09.558',-1.365
'0:09.560',-1.290
'0:09.562',-1.255
'0:09.564',-1.245
'0:09.566',-1.285
'0:09.568',-1.350
'0:09.570',-1.420
'0:09.572',-1.425
'0:09.574',-1.420
'0:09.576',-1.325
'0:09.578',-1.300
'0:09.580',-1.255
'0:09.582',-1.250
'0:09.584',-1.260
'0:09.586',-1.330
'0:09.588',-1.390
'0:09.590',-1.425
'0:09.592',-1.455
'0:09.594',-1.365
'0:09.596',-1.360
'0:09.598',-1.330
'0:09.600',-1.255
'0:09.602',-1.285
'0:09.604',-1.315
'0:09.606',-1.335
'0:09.608',-1.315
'0:09.610',-1.395
'0:09.612',-1.435
'0:09.614',-1.420
'0:09.616',-1.350
'0:09.618',-1.325
'0:09.620',-1.255
'0:09.622',-1.245
'0:09.624',-1.275
'0:09.626',-1.340
'0:09.628',-1.350
'0:09.630',-1.420
'0:09.632',-1.405
'0:09.634',-1.375
'0:09.636',-1.345
'0:09.638',-1.335
'0:09.640',-1.285
'0:09.642',-1.255
'0:09.644',-1.310
'0:09.646',-1.410
'0:09.648',-1.400
'0:09.650',-1.465
'0:09.652',-1.435
'0:09.654',-1.360
'0:09.656',-1.335
'0:09.658',-1.290
'0:09.660',-1.315
'0:09.662',-1.330
'0:09.664',-1.285
'0:09.666',-1.360
'0:09.668',-1.360
'0:09.670',-1.460
'0:09.672',-1.420
'0:09.674',-1.425
'0:09.676',-1.370
'0:09.678',-1.300
'0:09.680',-1.300
'0:09.682',-1.345
'0:09.684',-1.310
'0:09.686',-1.265
'0:09.688',-1.450
'0:09.690',-1.395
'0:09.692',-1.415
'0:09.694',-1.345
'0:09.696',-1.335
'0:09.698',-1.280
'0:09.700',-1.255
'0:09.702',-1.240
'0:09.704',-1.290
'0:09.706',-1.345
'0:09.708',-1.425
'0:09.710',-1.385
'0:09.712',-1.370
'0:09.714',-1.365
'0:09.716',-1.310
'0:09.718',-1.255
'0:09.720',-1.265
'0:09.722',-1.270
'0:09.724',-1.270
'0:09.726',-1.380
'0:09.728',-1.435
'0:09.730',-1.395
'0:09.732',-1.410
'0:09.734',-1.390
'0:09.736',-1.370
'0:09.738',-1.360
'0:09.740',-1.345
'0:09.742',-1.375
'0:09.744',-1.355
'0:09.746',-1.385
'0:09.748',-1.425
'0:09.750',-1.455
'0:09.752',-1.450
'0:09.754',-1.455
'0:09.756',-1.420
'0:09.758',-1.285
'0:09.760',-1.305
'0:09.762',-1.345
'0:09.764',-1.355
'0:09.766',-1.420
'0:09.768',-1.440
'0:09.770',-1.485
'0:09.772',-1.470
'0:09.774',-1.450
'0:09.776',-1.430
'0:09.778',-1.335
'0:09.780',-1.420
'0:09.782',-1.345
'0:09.784',-1.390
'0:09.786',-1.435
'0:09.788',-1.495
'0:09.790',-1.460
'0:09.792',-1.480
'0:09.794',-1.455
'0:09.796',-1.410
'0:09.798',-1.365
'0:09.800',-1.350
'0:09.802',-1.360
'0:09.804',-1.410
'0:09.806',-1.460
'0:09.808',-1.540
'0:09.810',-1.520
'0:09.812',-1.530
'0:09.814',-1.495
'0:09.816',-1.495
'0:09.818',-1.415
'0:09.820',-1.385
'0:09.822',-1.405
'0:09.824',-1.390
'0:09.826',-1.395
'0:09.828',-1.430
'0:09.830',-1.365
'0:09.832',-1.295
'0:09.834',-1.190
'0:09.836',-1.070
'0:09.838',-0.920
'0:09.840',-0.865
'0:09.842',-0.865
'0:09.844',-0.905
'0:09.846',-0.955
'0:09.848',-1.150
'0:09.850',-1.305
'0:09.852',-1.285
'0:09.854',-1.325
'0:09.856',-1.360
'0:09.858',-1.380
'0:09.860',-1.570
'0:09.862',-1.645
'0:09.864',-1.725
'0:09.866',-1.645
'0:09.868',-1.730
'0:09.870',-1.730
'0:09.872',-1.680
'0:09.874',-1.605
'0:09.876',-1.560
'0:09.878',-1.510
'0:09.880',-1.500
'0:09.882',-1.525
'0:09.884',-1.505
'0:09.886',-1.510
'0:09.888',-1.590
'0:09.890',-1.550
'0:09.892',-1.525
'0:09.894',-1.475
'0:09.896',-1.445
'0:09.898',-1.395
'0:09.900',-1.440
'0:09.902',-1.420
'0:09.904',-1.470
'0:09.906',-1.490
'0:09.908',-1.535
'0:09.910',-1.565
'0:09.912',-1.485
'0:09.914',-1.460
'0:09.916',-1.435
'0:09.918',-1.405
'0:09.920',-1.445
'0:09.922',-1.460
'0:09.924',-1.420
'0:09.926',-1.450
'0:09.928',-1.505
'0:09.930',-1.570
'0:09.932',-1.510
'0:09.934',-1.490
'0:09.936',-1.430
'0:09.938',-1.380
'0:09.940',-1.380
'0:09.942',-1.415
'0:09.944',-1.495
'0:09.946',-1.480
'0:09.948',-1.565
'0:09.950',-1.545
'0:09.952',-1.505
'0:09.954',-1.450
'0:09.956',-1.410
'0:09.958',-1.385
'0:09.960',-1.445
'0:09.962',-1.375
'0:09.964',-1.440
'0:09.966',-1.550
'0:09.968',-1.525
'0:09.970',-1.520
'0:09.972',-1.525
'0:09.974',-1.450
'0:09.976',-1.425
'0:09.978',-1.375
'0:09.980',-1.425
'0:09.982',-1.450
'0:09.984',-1.450
'0:09.986',-1.510
'0:09.988',-1.480
'0:09.990',-1.540
'0:09.992',-1.485
'0:09.994',-1.460
'0:09.996',-1.370
'0:09.998',-1.355
'0:10.000',-1.375
'0:10.002',-1.410
'0:10.004',-1.445
'0:10.006',-1.495
'0:10.008',-1.500
'0:10.010',-1.530
'0:10.012',-1.470
'0:10.014',-1.425
'0:10.016',-1.365
'0:10.018',-1.375
'0:10.020',-1.375
'0:10.022',-1.405
'0:10.024',-1.400
'0:10.026',-1.470
'0:10.028',-1.485
'0:10.030',-1.500
'0:10.032',-1.410
'0:10.034',-1.400
'0:10.036',-1.295
'0:10.038',-1.370
'0:10.040',-1.385
'0:10.042',-1.370
'0:10.044',-1.400
'0:10.046',-1.460
'0:10.048',-1.360
'0:10.050',-1.370
'0:10.052',-1.365
'0:10.054',-1.310
'0:10.056',-1.290
'0:10.058',-1.235
'0:10.060',-1.240
'0:10.062',-1.270
'0:10.064',-1.310
'0:10.066',-1.350
'0:10.068',-1.345
'0:10.070',-1.370
'0:10.072',-1.295
'0:10.074',-1.290
'0:10.076',-1.220
'0:10.078',-1.225
'0:10.080',-1.220
'0:10.082',-1.250
'0:10.084',-1.235
'0:10.086',-1.325
'0:10.088',-1.355
'0:10.090',-1.355
'0:10.092',-1.275
'0:10.094',-1.265
'0:10.096',-1.210
'0:10.098',-1.300
'0:10.100',-1.235
'0:10.102',-1.260
'0:10.104',-1.320
'0:10.106',-1.385
'0:10.108',-1.380
'0:10.110',-1.365
'0:10.112',-1.365
'0:10.114',-1.300
'0:10.116',-1.260
'0:10.118',-1.280
'0:10.120',-1.310
'0:10.122',-1.385
'0:10.124',-1.445
'0:10.126',-1.490
'0:10.128',-1.515
'0:10.130',-1.530
'0:10.132',-1.520
'0:10.134',-1.455
'0:10.136',-1.420
'0:10.138',-1.440
'0:10.140',-1.455
'0:10.142',-1.435
'0:10.144',-1.510
'0:10.146',-1.560
'0:10.148',-1.510
'0:10.150',-1.510
'0:10.152',-1.515
'0:10.154',-1.515
'0:10.156',-1.460
'0:10.158',-1.475
'0:10.160',-1.475
'0:10.162',-1.495
'0:10.164',-1.545
'0:10.166',-1.610
'0:10.168',-1.600
'0:10.170',-1.575
'0:10.172',-1.555
'0:10.174',-1.515
'0:10.176',-1.510
'0:10.178',-1.430
'0:10.180',-1.475
'0:10.182',-1.560
'0:10.184',-1.545
'0:10.186',-1.635
'0:10.188',-1.660
'0:10.190',-1.620
'0:10.192',-1.615
'0:10.194',-1.500
'0:10.196',-1.495
'0:10.198',-1.505
'0:10.200',-1.510
'0:10.202',-1.545
'0:10.204',-1.575
'0:10.206',-1.655
'0:10.208',-1.665
'0:10.210',-1.675
'0:10.212',-1.590
'0:10.214',-1.560
'0:10.216',-1.505
'0:10.218',-1.525
'0:10.220',-1.575
'0:10.222',-1.560
'0:10.224',-1.585
'0:10.226',-1.635
'0:10.228',-1.650
'0:10.230',-1.660
'0:10.232',-1.555
'0:10.234',-1.530
'0:10.236',-1.535
'0:10.238',-1.535
'0:10.240',-1.555
'0:10.242',-1.620
'0:10.244',-1.620
'0:10.246',-1.630
'0:10.248',-1.635
'0:10.250',-1.605
'0:10.252',-1.575
'0:10.254',-1.570
'0:10.256',-1.510
'0:10.258',-1.540
'0:10.260',-1.545
'0:10.262',-1.575
'0:10.264',-1.635
'0:10.266',-1.625
'0:10.268',-1.625
'0:10.270',-1.620
'0:10.272',-1.615
'0:10.274',-1.510
'0:10.276',-1.550
'0:10.278',-1.555
'0:10.280',-1.580
'0:10.282',-1.540
'0:10.284',-1.630
'0:10.286',-1.635
'0:10.288',-1.695
'0:10.290',-1.610
'0:10.292',-1.590
'0:10.294',-1.500
'0:10.296',-1.545
'0:10.298',-1.465
'0:10.300',-1.505
'0:10.302',-1.605
'0:10.304',-1.660
'0:10.306',-1.665
'0:10.308',-1.670
'0:10.310',-1.660
'0:10.312',-1.620
'0:10.314',-1.560
'0:10.316',-1.580
'0:10.318',-1.550
'0:10.320',-1.545
'0:10.322',-1.590
'0:10.324',-1.670
'0:10.326',-1.675
'0:10.328',-1.565
'0:10.330',-1.625
'0:10.332',-1.645
'0:10.334',-1.550
'0:10.336',-1.555
'0:10.338',-1.580
'0:10.340',-1.610
'0:10.342',-1.600
'0:10.344',-1.620
'0:10.346',-1.615
'0:10.348',-1.695
'0:10.350',-1.680
'0:10.352',-1.605
'0:10.354',-1.560
'0:10.356',-1.530
'0:10.358',-1.595
'0:10.360',-1.585
'0:10.362',-1.640
'0:10.364',-1.690
'0:10.366',-1.685
'0:10.368',-1.690
'0:10.370',-1.650
'0:10.372',-1.590
'0:10.374',-1.555
'0:10.376',-1.540
'0:10.378',-1.515
'0:10.380',-1.610
'0:10.382',-1.635
'0:10.384',-1.705
'0:10.386',-1.710
'0:10.388',-1.720
'0:10.390',-1.675
'0:10.392',-1.610
'0:10.394',-1.505
'0:10.396',-1.545
'0:10.398',-1.535
'0:10.400',-1.645
'0:10.402',-1.620
'0:10.404',-1.670
'0:10.406',-1.665
'0:10.408',-1.675
'0:10.410',-1.630
'0:10.412',-1.565
'0:10.414',-1.535
'0:10.416',-1.555
'0:10.418',-1.575
'0:10.420',-1.585
'0:10.422',-1.590
'0:10.424',-1.645
'0:10.426',-1.670
'0:10.428',-1.700
'0:10.430',-1.605
'0:10.432',-1.650
'0:10.434',-1.505
'0:10.436',-1.530
'0:10.438',-1.550
'0:10.440',-1.595
'0:10.442',-1.585
'0:10.444',-1.705
'0:10.446',-1.670
'0:10.448',-1.630
'0:10.450',-1.645
'0:10.452',-1.630
'0:10.454',-1.560
'0:10.456',-1.555
'0:10.458',-1.525
'0:10.460',-1.565
'0:10.462',-1.635
'0:10.464',-1.730
'0:10.466',-1.720
'0:10.468',-1.650
'0:10.470',-1.625
'0:10.472',-1.585
'0:10.474',-1.565
'0:10.476',-1.540
'0:10.478',-1.580
'0:10.480',-1.615
'0:10.482',-1.645
'0:10.484',-1.680
'0:10.486',-1.725
'0:10.488',-1.640
'0:10.490',-1.595
'0:10.492',-1.595
'0:10.494',-1.555
'0:10.496',-1.565
'0:10.498',-1.515
'0:10.500',-1.580
'0:10.502',-1.630
'0:10.504',-1.730
'0:10.506',-1.700
'0:10.508',-1.690
'0:10.510',-1.550
'0:10.512',-1.535
'0:10.514',-1.555
'0:10.516',-1.550
'0:10.518',-1.530
'0:10.520',-1.605
'0:10.522',-1.635
'0:10.524',-1.705
'0:10.526',-1.700
'0:10.528',-1.685
'0:10.530',-1.640
'0:10.532',-1.560
'0:10.534',-1.560
'0:10.536',-1.580
'0:10.538',-1.560
'0:10.540',-1.640
'0:10.542',-1.685
'0:10.544',-1.735
'0:10.546',-1.690
'0:10.548',-1.645
'0:10.550',-1.650
'0:10.552',-1.575
'0:10.554',-1.510
'0:10.556',-1.510
'0:10.558',-1.570
'0:10.560',-1.615
'0:10.562',-1.660
'0:10.564',-1.675
'0:10.566',-1.655
'0:10.568',-1.600
'0:10.570',-1.605
'0:10.572',-1.555
'0:10.574',-1.490
'0:10.576',-1.545
'0:10.578',-1.560
'0:10.580',-1.630
'0:10.582',-1.665
'0:10.584',-1.675
'0:10.586',-1.665
'0:10.588',-1.570
'0:10.590',-1.620
'0:10.592',-1.570
'0:10.594',-1.525
'0:10.596',-1.550
'0:10.598',-1.555
'0:10.600',-1.570
'0:10.602',-1.620
'0:10.604',-1.645
'0:10.606',-1.640
'0:10.608',-1.615
'0:10.610',-1.545
'0:10.612',-1.560
'0:10.614',-1.525
'0:10.616',-1.495
'0:10.618',-1.570
'0:10.620',-1.580
'0:10.622',-1.620
'0:10.624',-1.640
'0:10.626',-1.615
'0:10.628',-1.610
'0:10.630',-1.580
'0:10.632',-1.495
'0:10.634',-1.410
'0:10.636',-1.450
'0:10.638',-1.475
'0:10.640',-1.540
'0:10.642',-1.635
'0:10.644',-1.655
'0:10.646',-1.580
'0:10.648',-1.505
'0:10.650',-1.565
'0:10.652',-1.490
'0:10.654',-1.460
'0:10.656',-1.520
'0:10.658',-1.550
'0:10.660',-1.550
'0:10.662',-1.660
'0:10.664',-1.600
'0:10.666',-1.645
'0:10.668',-1.615
'0:10.670',-1.540
'0:10.672',-1.450
'0:10.674',-1.480
'0:10.676',-1.500
'0:10.678',-1.550
'0:10.680',-1.585
'0:10.682',-1.675
'0:10.684',-1.675
'0:10.686',-1.660
'0:10.688',-1.635
'0:10.690',-1.590
'0:10.692',-1.540
'0:10.694',-1.490
'0:10.696',-1.525
'0:10.698',-1.600
'0:10.700',-1.590
'0:10.702',-1.635
'0:10.704',-1.675
'0:10.706',-1.670
'0:10.708',-1.640
'0:10.710',-1.590
'0:10.712',-1.535
'0:10.714',-1.510
'0:10.716',-1.535
'0:10.718',-1.595
'0:10.720',-1.560
'0:10.722',-1.665
'0:10.724',-1.675
'0:10.726',-1.665
'0:10.728',-1.590
'0:10.730',-1.575
'0:10.732',-1.510
'0:10.734',-1.500
'0:10.736',-1.500
'0:10.738',-1.585
'0:10.740',-1.650
'0:10.742',-1.630
'0:10.744',-1.680
'0:10.746',-1.690
'0:10.748',-1.660
'0:10.750',-1.605
'0:10.752',-1.475
'0:10.754',-1.440
'0:10.756',-1.340
'0:10.758',-1.310
'0:10.760',-1.235
'0:10.762',-1.275
'0:10.764',-1.225
'0:10.766',-1.125
'0:10.768',-1.095
'0:10.770',-1.115
'0:10.772',-1.165
'0:10.774',-1.280
'0:10.776',-1.335
'0:10.778',-1.405
'0:10.780',-1.460
'0:10.782',-1.610
'0:10.784',-1.735
'0:10.786',-1.875
'0:10.788',-1.885
'0:10.790',-1.800
'0:10.792',-1.720
'0:10.794',-1.725
'0:10.796',-1.720
'0:10.798',-1.805
'0:10.800',-1.800
'0:10.802',-1.815
'0:10.804',-1.780
'0:10.806',-1.755
'0:10.808',-1.575
'0:10.810',-1.580
'0:10.812',-1.620
'0:10.814',-1.565
'0:10.816',-1.560
'0:10.818',-1.620
'0:10.820',-1.625
'0:10.822',-1.630
'0:10.824',-1.600
'0:10.826',-1.605
'0:10.828',-1.585
'0:10.830',-1.540
'0:10.832',-1.500
'0:10.834',-1.455
'0:10.836',-1.550
'0:10.838',-1.530
'0:10.840',-1.605
'0:10.842',-1.620
'0:10.844',-1.605
'0:10.846',-1.540
'0:10.848',-1.535
'0:10.850',-1.480
'0:10.852',-1.445
'0:10.854',-1.480
'0:10.856',-1.525
'0:10.858',-1.525
'0:10.860',-1.575
'0:10.862',-1.625
'0:10.864',-1.595
'0:10.866',-1.550
'0:10.868',-1.485
'0:10.870',-1.455
'0:10.872',-1.430
'0:10.874',-1.475
'0:10.876',-1.490
'0:10.878',-1.535
'0:10.880',-1.585
'0:10.882',-1.580
'0:10.884',-1.560
'0:10.886',-1.515
'0:10.888',-1.480
'0:10.890',-1.435
'0:10.892',-1.415
'0:10.894',-1.445
'0:10.896',-1.420
'0:10.898',-1.465
'0:10.900',-1.555
'0:10.902',-1.575
'0:10.904',-1.545
'0:10.906',-1.515
'0:10.908',-1.530
'0:10.910',-1.440
'0:10.912',-1.430
'0:10.914',-1.430
'0:10.916',-1.400
'0:10.918',-1.505
'0:10.920',-1.565
'0:10.922',-1.470
'0:10.924',-1.435
'0:10.926',-1.470
'0:10.928',-1.440
'0:10.930',-1.405
'0:10.932',-1.380
'0:10.934',-1.385
'0:10.936',-1.425
'0:10.938',-1.490
'0:10.940',-1.525
'0:10.942',-1.505
'0:10.944',-1.450
'0:10.946',-1.465
'0:10.948',-1.445
'0:10.950',-1.300
'0:10.952',-1.320
'0:10.954',-1.350
'0:10.956',-1.400
'0:10.958',-1.385
'0:10.960',-1.485
'0:10.962',-1.485
'0:10.964',-1.410
'0:10.966',-1.380
'0:10.968',-1.405
'0:10.970',-1.325
'0:10.972',-1.330
'0:10.974',-1.310
'0:10.976',-1.355
'0:10.978',-1.370
'0:10.980',-1.405
'0:10.982',-1.350
'0:10.984',-1.345
'0:10.986',-1.310
'0:10.988',-1.315
'0:10.990',-1.255
'0:10.992',-1.230
'0:10.994',-1.225
'0:10.996',-1.210
'0:10.998',-1.250
'0:11.000',-1.365
'0:11.002',-1.375
'0:11.004',-1.335
'0:11.006',-1.305
'0:11.008',-1.260
'0:11.010',-1.170
'0:11.012',-1.210
'0:11.014',-1.195
'0:11.016',-1.230
'0:11.018',-1.285
'0:11.020',-1.330
'0:11.022',-1.355
'0:11.024',-1.330
'0:11.026',-1.285
'0:11.028',-1.255
'0:11.030',-1.195
'0:11.032',-1.240
'0:11.034',-1.255
'0:11.036',-1.290
'0:11.038',-1.350
'0:11.040',-1.385
'0:11.042',-1.365
'0:11.044',-1.395
'0:11.046',-1.380
'0:11.048',-1.425
'0:11.050',-1.290
'0:11.052',-1.305
'0:11.054',-1.360
'0:11.056',-1.455
'0:11.058',-1.420
'0:11.060',-1.490
'0:11.062',-1.505
'0:11.064',-1.490
'0:11.066',-1.470
'0:11.068',-1.445
'0:11.070',-1.410
'0:11.072',-1.440
'0:11.074',-1.410
'0:11.076',-1.475
'0:11.078',-1.545
'0:11.080',-1.575
'0:11.082',-1.535
'0:11.084',-1.545
'0:11.086',-1.530
'0:11.088',-1.480
'0:11.090',-1.445
'0:11.092',-1.405
'0:11.094',-1.425
'0:11.096',-1.525
'0:11.098',-1.525
'0:11.100',-1.565
'0:11.102',-1.570
'0:11.104',-1.560
'0:11.106',-1.530
'0:11.108',-1.510
'0:11.110',-1.475
'0:11.112',-1.470
'0:11.114',-1.460
'0:11.116',-1.490
'0:11.118',-1.555
'0:11.120',-1.595
'0:11.122',-1.575
'0:11.124',-1.560
'0:11.126',-1.520
'0:11.128',-1.460
'0:11.130',-1.465
'0:11.132',-1.455
'0:11.134',-1.495
'0:11.136',-1.545
'0:11.138',-1.565
'0:11.140',-1.590
'0:11.142',-1.590
'0:11.144',-1.585
'0:11.146',-1.495
'0:11.148',-1.495
'0:11.150',-1.495
'0:11.152',-1.465
'0:11.154',-1.495
'0:11.156',-1.535
'0:11.158',-1.600
'0:11.160',-1.630
'0:11.162',-1.615
'0:11.164',-1.630
'0:11.166',-1.475
'0:11.168',-1.490
'0:11.170',-1.445
'0:11.172',-1.415
'0:11.174',-1.465
'0:11.176',-1.535
'0:11.178',-1.580
'0:11.180',-1.555
'0:11.182',-1.570
'0:11.184',-1.560
'0:11.186',-1.520
'0:11.188',-1.460
'0:11.190',-1.475
'0:11.192',-1.445
'0:11.194',-1.475
'0:11.196',-1.535
'0:11.198',-1.570
'0:11.200',-1.580
'0:11.202',-1.570
'0:11.204',-1.505
'0:11.206',-1.480
'0:11.208',-1.470
'0:11.210',-1.480
'0:11.212',-1.460
'0:11.214',-1.450
'0:11.216',-1.545
'0:11.218',-1.655
'0:11.220',-1.590
'0:11.222',-1.520
'0:11.224',-1.540
'0:11.226',-1.520
'0:11.228',-1.480
'0:11.230',-1.425
'0:11.232',-1.410
'0:11.234',-1.490
'0:11.236',-1.545
'0:11.238',-1.525
'0:11.240',-1.610
'0:11.242',-1.660
'0:11.244',-1.600
'0:11.246',-1.540
'0:11.248',-1.405
'0:11.250',-1.440
'0:11.252',-1.460
'0:11.254',-1.505
'0:11.256',-1.515
'0:11.258',-1.585
'0:11.260',-1.610
'0:11.262',-1.545
'0:11.264',-1.525
'0:11.266',-1.510
'0:11.268',-1.440
'0:11.270',-1.490
'0:11.272',-1.455
'0:11.274',-1.475
'0:11.276',-1.525
'0:11.278',-1.615
'0:11.280',-1.585
'0:11.282',-1.620
'0:11.284',-1.560
'0:11.286',-1.510
'0:11.288',-1.455
'0:11.290',-1.495
'0:11.292',-1.500
'0:11.294',-1.530
'0:11.296',-1.555
'0:11.298',-1.565
'0:11.300',-1.590
'0:11.302',-1.560
'0:11.304',-1.595
'0:11.306',-1.435
'0:11.308',-1.410
'0:11.310',-1.530
'0:11.312',-1.545
'0:11.314',-1.505
'0:11.316',-1.480
'0:11.318',-1.580
'0:11.320',-1.610
'0:11.322',-1.595
'0:11.324',-1.545
'0:11.326',-1.535
'0:11.328',-1.470
'0:11.330',-1.425
'0:11.332',-1.440
'0:11.334',-1.515
'0:11.336',-1.560
'0:11.338',-1.605
'0:11.340',-1.590
'0:11.342',-1.560
'0:11.344',-1.520
'0:11.346',-1.505
'0:11.348',-1.420
'0:11.350',-1.475
'0:11.352',-1.505
'0:11.354',-1.550
'0:11.356',-1.580
'0:11.358',-1.625
'0:11.360',-1.555
'0:11.362',-1.590
'0:11.364',-1.500
'0:11.366',-1.495
'0:11.368',-1.465
'0:11.370',-1.470
'0:11.372',-1.525
'0:11.374',-1.520
'0:11.376',-1.555
'0:11.378',-1.645
'0:11.380',-1.615
'0:11.382',-1.595
'0:11.384',-1.495
'0:11.386',-1.490
'0:11.388',-1.465
'0:11.390',-1.400
'0:11.392',-1.410
'0:11.394',-1.520
'0:11.396',-1.585
'0:11.398',-1.550
'0:11.400',-1.590
'0:11.402',-1.555
'0:11.404',-1.565
'0:11.406',-1.530
'0:11.408',-1.440
'0:11.410',-1.465
'0:11.412',-1.440
'0:11.414',-1.520
'0:11.416',-1.570
'0:11.418',-1.650
'0:11.420',-1.585
'0:11.422',-1.565
'0:11.424',-1.490
'0:11.426',-1.475
'0:11.428',-1.450
'0:11.430',-1.480
'0:11.432',-1.520
'0:11.434',-1.555
'0:11.436',-1.585
'0:11.438',-1.590
'0:11.440',-1.605
'0:11.442',-1.630
'0:11.444',-1.540
'0:11.446',-1.455
'0:11.448',-1.450
'0:11.450',-1.465
'0:11.452',-1.465
'0:11.454',-1.575
'0:11.456',-1.550
'0:11.458',-1.545
'0:11.460',-1.605
'0:11.462',-1.555
'0:11.464',-1.515
'0:11.466',-1.490
'0:11.468',-1.455
'0:11.470',-1.445
'0:11.472',-1.500
'0:11.474',-1.480
'0:11.476',-1.545
'0:11.478',-1.590
'0:11.480',-1.595
'0:11.482',-1.560
'0:11.484',-1.465
'0:11.486',-1.435
'0:11.488',-1.415
'0:11.490',-1.460
'0:11.492',-1.470
'0:11.494',-1.540
'0:11.496',-1.520
'0:11.498',-1.580
'0:11.500',-1.535
'0:11.502',-1.555
'0:11.504',-1.470
'0:11.506',-1.390
'0:11.508',-1.380
'0:11.510',-1.440
'0:11.512',-1.455
'0:11.514',-1.500
'0:11.516',-1.530
'0:11.518',-1.545
'0:11.520',-1.585
'0:11.522',-1.520
'0:11.524',-1.460
'0:11.526',-1.405
'0:11.528',-1.385
'0:11.530',-1.385
'0:11.532',-1.435
'0:11.534',-1.465
'0:11.536',-1.520
'0:11.538',-1.550
'0:11.540',-1.525
'0:11.542',-1.470
'0:11.544',-1.420
'0:11.546',-1.335
'0:11.548',-1.375
'0:11.550',-1.425
'0:11.552',-1.455
'0:11.554',-1.485
'0:11.556',-1.570
'0:11.558',-1.570
'0:11.560',-1.565
'0:11.562',-1.490
'0:11.564',-1.465
'0:11.566',-1.425
'0:11.568',-1.425
'0:11.570',-1.475
'0:11.572',-1.555
'0:11.574',-1.520
'0:11.576',-1.555
'0:11.578',-1.570
'0:11.580',-1.540
'0:11.582',-1.500
'0:11.584',-1.525
'0:11.586',-1.465
'0:11.588',-1.435
'0:11.590',-1.485
'0:11.592',-1.465
'0:11.594',-1.520
'0:11.596',-1.575
'0:11.598',-1.570
'0:11.600',-1.585
'0:11.602',-1.505
'0:11.604',-1.440
'0:11.606',-1.430
'0:11.608',-1.445
'0:11.610',-1.430
'0:11.612',-1.455
'0:11.614',-1.515
'0:11.616',-1.590
'0:11.618',-1.590
'0:11.620',-1.585
'0:11.622',-1.480
'0:11.624',-1.490
'0:11.626',-1.435
'0:11.628',-1.435
'0:11.630',-1.510
'0:11.632',-1.560
'0:11.634',-1.555
'0:11.636',-1.570
'0:11.638',-1.595
'0:11.640',-1.540
'0:11.642',-1.465
'0:11.644',-1.375
'0:11.646',-1.270
'0:11.648',-1.175
'0:11.650',-1.090
'0:11.652',-1.130
'0:11.654',-1.105
'0:11.656',-1.090
'0:11.658',-1.035
'0:11.660',-1.085
'0:11.662',-1.120
'0:11.664',-1.195
'0:11.666',-1.210
'0:11.668',-1.240
'0:11.670',-1.300
'0:11.672',-1.485
'0:11.674',-1.570
'0:11.676',-1.810
'0:11.678',-1.830
'0:11.680',-1.805
'0:11.682',-1.720
'0:11.684',-1.645
'0:11.686',-1.620
'0:11.688',-1.605
'0:11.690',-1.635
'0:11.692',-1.615
'0:11.694',-1.645
'0:11.696',-1.630
'0:11.698',-1.605
'0:11.700',-1.585
'0:11.702',-1.515
'0:11.704',-1.455
'0:11.706',-1.380
'0:11.708',-1.405
'0:11.710',-1.440
'0:11.712',-1.480
'0:11.714',-1.530
'0:11.716',-1.500
'0:11.718',-1.545
'0:11.720',-1.495
'0:11.722',-1.495
'0:11.724',-1.405
'0:11.726',-1.395
'0:11.728',-1.410
'0:11.730',-1.425
'0:11.732',-1.460
'0:11.734',-1.490
'0:11.736',-1.520
'0:11.738',-1.520
'0:11.740',-1.490
'0:11.742',-1.455
'0:11.744',-1.370
'0:11.746',-1.355
'0:11.748',-1.385
'0:11.750',-1.430
'0:11.752',-1.495
'0:11.754',-1.545
'0:11.756',-1.505
'0:11.758',-1.535
'0:11.760',-1.485
'0:11.762',-1.470
'0:11.764',-1.330
'0:11.766',-1.340
'0:11.768',-1.405
'0:11.770',-1.405
'0:11.772',-1.400
'0:11.774',-1.495
'0:11.776',-1.460
'0:11.778',-1.520
'0:11.780',-1.470
'0:11.782',-1.465
'0:11.784',-1.335
'0:11.786',-1.390
'0:11.788',-1.365
'0:11.790',-1.420
'0:11.792',-1.410
'0:11.794',-1.435
'0:11.796',-1.485
'0:11.798',-1.475
'0:11.800',-1.475
'0:11.802',-1.435
'0:11.804',-1.370
'0:11.806',-1.350
'0:11.808',-1.355
'0:11.810',-1.400
'0:11.812',-1.410
'0:11.814',-1.495
'0:11.816',-1.480
'0:11.818',-1.495
'0:11.820',-1.425
'0:11.822',-1.365
'0:11.824',-1.325
'0:11.826',-1.350
'0:11.828',-1.325
'0:11.830',-1.365
'0:11.832',-1.390
'0:11.834',-1.460
'0:11.836',-1.510
'0:11.838',-1.445
'0:11.840',-1.425
'0:11.842',-1.415
'0:11.844',-1.285
'0:11.846',-1.290
'0:11.848',-1.290
'0:11.850',-1.355
'0:11.852',-1.355
'0:11.854',-1.445
'0:11.856',-1.405
'0:11.858',-1.375
'0:11.860',-1.305
'0:11.862',-1.350
'0:11.864',-1.265
'0:11.866',-1.265
'0:11.868',-1.265
'0:11.870',-1.305
'0:11.872',-1.300
'0:11.874',-1.380
'0:11.876',-1.340
'0:11.878',-1.350
'0:11.880',-1.315
'0:11.882',-1.240
'0:11.884',-1.160
'0:11.886',-1.180
'0:11.888',-1.180
'0:11.890',-1.245
'0:11.892',-1.285
'0:11.894',-1.295
'0:11.896',-1.330
'0:11.898',-1.350
'0:11.900',-1.300
'0:11.902',-1.245
'0:11.904',-1.110
'0:11.906',-1.125
'0:11.908',-1.175
'0:11.910',-1.235
'0:11.912',-1.275
'0:11.914',-1.340
'0:11.916',-1.350
'0:11.918',-1.325
'0:11.920',-1.295
'0:11.922',-1.270
'0:11.924',-1.220
'0:11.926',-1.260
'0:11.928',-1.250
'0:11.930',-1.290
'0:11.932',-1.335
'0:11.934',-1.380
'0:11.936',-1.425
'0:11.938',-1.380
'0:11.940',-1.385
'0:11.942',-1.385
'0:11.944',-1.325
'0:11.946',-1.365
'0:11.948',-1.350
'0:11.950',-1.390
'0:11.952',-1.450
'0:11.954',-1.520
'0:11.956',-1.510
'0:11.958',-1.505
'0:11.960',-1.465
'0:11.962',-1.400
'0:11.964',-1.380
'0:11.966',-1.360
'0:11.968',-1.450
'0:11.970',-1.475
'0:11.972',-1.550
'0:11.974',-1.545
'0:11.976',-1.610
'0:11.978',-1.570
'0:11.980',-1.540
'0:11.982',-1.440
'0:11.984',-1.445
'0:11.986',-1.405
'0:11.988',-1.405
'0:11.990',-1.480
'0:11.992',-1.520
'0:11.994',-1.530
'0:11.996',-1.565
'0:11.998',-1.565
'0:12.000',-1.535
'0:12.002',-1.460
'0:12.004',-1.410
'0:12.006',-1.430
'0:12.008',-1.485
'0:12.010',-1.495
'0:12.012',-1.595
'0:12.014',-1.590
'0:12.016',-1.545
'0:12.018',-1.525
'0:12.020',-1.450
'0:12.022',-1.455
'0:12.024',-1.420
'0:12.026',-1.470
'0:12.028',-1.450
'0:12.030',-1.520
'0:12.032',-1.560
'0:12.034',-1.610
'0:12.036',-1.550
'0:12.038',-1.530
'0:12.040',-1.495
'0:12.042',-1.425
'0:12.044',-1.470
'0:12.046',-1.470
'0:12.048',-1.505
'0:12.050',-1.515
'0:12.052',-1.570
'0:12.054',-1.570
'0:12.056',-1.570
'0:12.058',-1.535
'0:12.060',-1.495
'0:12.062',-1.480
'0:12.064',-1.480
'0:12.066',-1.465
'0:12.068',-1.465
'0:12.070',-1.560
'0:12.072',-1.545
'0:12.074',-1.535
'0:12.076',-1.555
'0:12.078',-1.525
'0:12.080',-1.505
'0:12.082',-1.395
'0:12.084',-1.400
'0:12.086',-1.435
'0:12.088',-1.485
'0:12.090',-1.540
'0:12.092',-1.565
'0:12.094',-1.590
'0:12.096',-1.550
'0:12.098',-1.520
'0:12.100',-1.485
'0:12.102',-1.445
'0:12.104',-1.420
'0:12.106',-1.430
'0:12.108',-1.480
'0:12.110',-1.490
'0:12.112',-1.585
'0:12.114',-1.595
'0:12.116',-1.560
'0:12.118',-1.525
'0:12.120',-1.520
'0:12.122',-1.460
'0:12.124',-1.450
'0:12.126',-1.440
'0:12.128',-1.485
'0:12.130',-1.530
'0:12.132',-1.590
'0:12.134',-1.545
'0:12.136',-1.570
'0:12.138',-1.575
'0:12.140',-1.510
'0:12.142',-1.430
'0:12.144',-1.410
'0:12.146',-1.445
'0:12.148',-1.535
'0:12.150',-1.515
'0:12.152',-1.600
'0:12.154',-1.595
'0:12.156',-1.570
'0:12.158',-1.545
'0:12.160',-1.550
'0:12.162',-1.520
'0:12.164',-1.420
'0:12.166',-1.455
'0:12.168',-1.500
'0:12.170',-1.550
'0:12.172',-1.620
'0:12.174',-1.595
'0:12.176',-1.600
'0:12.178',-1.580
'0:12.180',-1.510
'0:12.182',-1.510
'0:12.184',-1.485
'0:12.186',-1.470
'0:12.188',-1.555
'0:12.190',-1.570
'0:12.192',-1.660
'0:12.194',-1.630
'0:12.196',-1.590
'0:12.198',-1.575
'0:12.200',-1.575
'0:12.202',-1.505
'0:12.204',-1.470
'0:12.206',-1.505
'0:12.208',-1.535
'0:12.210',-1.550
'0:12.212',-1.610
'0:12.214',-1.675
'0:12.216',-1.695
'0:12.218',-1.605
'0:12.220',-1.520
'0:12.222',-1.470
'0:12.224',-1.530
'0:12.226',-1.535
'0:12.228',-1.545
'0:12.230',-1.560
'0:12.232',-1.640
'0:12.234',-1.655
'0:12.236',-1.630
'0:12.238',-1.575
'0:12.240',-1.580
'0:12.242',-1.520
'0:12.244',-1.490
'0:12.246',-1.515
'0:12.248',-1.595
'0:12.250',-1.640
'0:12.252',-1.640
'0:12.254',-1.670
'0:12.256',-1.650
'0:12.258',-1.635
'0:12.260',-1.495
'0:12.262',-1.495
'0:12.264',-1.535
'0:12.266',-1.570
'0:12.268',-1.615
'0:12.270',-1.655
'0:12.272',-1.615
'0:12.274',-1.620
'0:12.276',-1.630
'0:12.278',-1.630
'0:12.280',-1.585
'0:12.282',-1.535
'0:12.284',-1.540
'0:12.286',-1.580
'0:12.288',-1.605
'0:12.290',-1.635
'0:12.292',-1.705
'0:12.294',-1.640
'0:12.296',-1.635
'0:12.298',-1.560
'0:12.300',-1.550
'0:12.302',-1.570
'0:12.304',-1.565
'0:12.306',-1.560
'0:12.308',-1.645
'0:12.310',-1.705
'0:12.312',-1.685
'0:12.314',-1.695
'0:12.316',-1.620
'0:12.318',-1.580
'0:12.320',-1.520
'0:12.322',-1.555
'0:12.324',-1.575
'0:12.326',-1.615
'0:12.328',-1.650
'0:12.330',-1.680
'0:12.332',-1.705
'0:12.334',-1.765
'0:12.336',-1.640
'0:12.338',-1.630
'0:12.340',-1.590
'0:12.342',-1.605
'0:12.344',-1.510
'0:12.346',-1.585
'0:12.348',-1.650
'0:12.350',-1.675
'0:12.352',-1.700
'0:12.354',-1.710
'0:12.356',-1.730
'0:12.358',-1.605
'0:12.360',-1.555
'0:12.362',-1.575
'0:12.364',-1.575
'0:12.366',-1.600
'0:12.368',-1.635
'0:12.370',-1.715
'0:12.372',-1.775
'0:12.374',-1.750
'0:12.376',-1.645
'0:12.378',-1.660
'0:12.380',-1.575
'0:12.382',-1.545
'0:12.384',-1.595
'0:12.386',-1.660
'0:12.388',-1.655
'0:12.390',-1.700
'0:12.392',-1.730
'0:12.394',-1.730
'0:12.396',-1.685
'0:12.398',-1.700
'0:12.400',-1.570
'0:12.402',-1.610
'0:12.404',-1.585
'0:12.406',-1.640
'0:12.408',-1.645
'0:12.410',-1.755
'0:12.412',-1.775
'0:12.414',-1.655
'0:12.416',-1.615
'0:12.418',-1.705
'0:12.420',-1.605
'0:12.422',-1.615
'0:12.424',-1.615
'0:12.426',-1.620
'0:12.428',-1.635
'0:12.430',-1.705
'0:12.432',-1.715
'0:12.434',-1.735
'0:12.436',-1.630
'0:12.438',-1.600
'0:12.440',-1.560
'0:12.442',-1.575
'0:12.444',-1.610
'0:12.446',-1.665
'0:12.448',-1.650
'0:12.450',-1.710
'0:12.452',-1.690
'0:12.454',-1.690
'0:12.456',-1.665
'0:12.458',-1.630
'0:12.460',-1.565
'0:12.462',-1.555
'0:12.464',-1.565
'0:12.466',-1.615
'0:12.468',-1.650
'0:12.470',-1.725
'0:12.472',-1.760
'0:12.474',-1.725
'0:12.476',-1.655
'0:12.478',-1.590
'0:12.480',-1.565
'0:12.482',-1.625
'0:12.484',-1.580
'0:12.486',-1.610
'0:12.488',-1.665
'0:12.490',-1.755
'0:12.492',-1.795
'0:12.494',-1.745
'0:12.496',-1.730
'0:12.498',-1.675
'0:12.500',-1.650
'0:12.502',-1.645
'0:12.504',-1.625
'0:12.506',-1.705
'0:12.508',-1.675
'0:12.510',-1.705
'0:12.512',-1.760
'0:12.514',-1.765
'0:12.516',-1.725
'0:12.518',-1.700
'0:12.520',-1.675
'0:12.522',-1.630
'0:12.524',-1.695
'0:12.526',-1.705
'0:12.528',-1.750
'0:12.530',-1.775
'0:12.532',-1.755
'0:12.534',-1.750
'0:12.536',-1.660
'0:12.538',-1.665
'0:12.540',-1.620
'0:12.542',-1.645
'0:12.544',-1.680
'0:12.546',-1.735
'0:12.548',-1.755
'0:12.550',-1.800
'0:12.552',-1.805
'0:12.554',-1.775
'0:12.556',-1.780
'0:12.558',-1.690
'0:12.560',-1.675
'0:12.562',-1.660
'0:12.564',-1.705
'0:12.566',-1.725
'0:12.568',-1.750
'0:12.570',-1.790
'0:12.572',-1.700
'0:12.574',-1.615
'0:12.576',-1.510
'0:12.578',-1.385
'0:12.580',-1.330
'0:12.582',-1.315
'0:12.584',-1.230
'0:12.586',-1.185
'0:12.588',-1.290
'0:12.590',-1.335
'0:12.592',-1.365
'0:12.594',-1.465
'0:12.596',-1.510
'0:12.598',-1.455
'0:12.600',-1.545
'0:12.602',-1.595
'0:12.604',-1.770
'0:12.606',-1.950
'0:12.608',-2.070
'0:12.610',-2.070
'0:12.612',-1.995
'0:12.614',-1.925
'0:12.616',-1.915
'0:12.618',-1.775
'0:12.620',-1.795
'0:12.622',-1.770
'0:12.624',-1.765
'0:12.626',-1.790
'0:12.628',-1.825
'0:12.630',-1.850
'0:12.632',-1.825
'0:12.634',-1.790
'0:12.636',-1.700
'0:12.638',-1.645
'0:12.640',-1.605
'0:12.642',-1.625
'0:12.644',-1.680
'0:12.646',-1.725
'0:12.648',-1.800
'0:12.650',-1.760
'0:12.652',-1.735
'0:12.654',-1.740
'0:12.656',-1.675
'0:12.658',-1.630
'0:12.660',-1.635
'0:12.662',-1.640
'0:12.664',-1.665
'0:12.666',-1.710
'0:12.668',-1.780
'0:12.670',-1.770
'0:12.672',-1.705
'0:12.674',-1.700
'0:12.676',-1.685
'0:12.678',-1.640
'0:12.680',-1.545
'0:12.682',-1.615
'0:12.684',-1.630
'0:12.686',-1.645
'0:12.688',-1.715
'0:12.690',-1.760
'0:12.692',-1.750
'0:12.694',-1.735
'0:12.696',-1.685
'0:12.698',-1.555
'0:12.700',-1.570
'0:12.702',-1.610
'0:12.704',-1.625
'0:12.706',-1.625
'0:12.708',-1.680
'0:12.710',-1.735
'0:12.712',-1.750
'0:12.714',-1.695
'0:12.716',-1.605
'0:12.718',-1.550
'0:12.720',-1.595
'0:12.722',-1.585
'0:12.724',-1.645
'0:12.726',-1.665
'0:12.728',-1.705
'0:12.730',-1.720
'0:12.732',-1.685
'0:12.734',-1.670
'0:12.736',-1.645
'0:12.738',-1.575
'0:12.740',-1.520
'0:12.742',-1.545
'0:12.744',-1.570
'0:12.746',-1.605
'0:12.748',-1.685
'0:12.750',-1.650
'0:12.752',-1.655
'0:12.754',-1.660
'0:12.756',-1.625
'0:12.758',-1.580
'0:12.760',-1.535
'0:12.762',-1.520
'0:12.764',-1.545
'0:12.766',-1.565
'0:12.768',-1.660
'0:12.770',-1.645
'0:12.772',-1.640
'0:12.774',-1.600
'0:12.776',-1.550
'0:12.778',-1.405
'0:12.780',-1.430
'0:12.782',-1.460
'0:12.784',-1.505
'0:12.786',-1.570
'0:12.788',-1.625
'0:12.790',-1.620
'0:12.792',-1.595
'0:12.794',-1.560
'0:12.796',-1.485
'0:12.798',-1.480
'0:12.800',-1.475
'0:12.802',-1.385
'0:12.804',-1.415
'0:12.806',-1.490
'0:12.808',-1.520
'0:12.810',-1.550
'0:12.812',-1.490
'0:12.814',-1.460
'0:12.816',-1.400
'0:12.818',-1.375
'0:12.820',-1.400
'0:12.822',-1.375
'0:12.824',-1.415
'0:12.826',-1.465
'0:12.828',-1.500
'0:12.830',-1.475
'0:12.832',-1.490
'0:12.834',-1.405
'0:12.836',-1.445
'0:12.838',-1.365
'0:12.840',-1.325
'0:12.842',-1.395
'0:12.844',-1.455
'0:12.846',-1.480
'0:12.848',-1.535
'0:12.850',-1.495
'0:12.852',-1.480
'0:12.854',-1.415
'0:12.856',-1.405
'0:12.858',-1.445
'0:12.860',-1.450
'0:12.862',-1.495
'0:12.864',-1.545
'0:12.866',-1.560
'0:12.868',-1.600
'0:12.870',-1.605
'0:12.872',-1.605
'0:12.874',-1.580
'0:12.876',-1.535
'0:12.878',-1.505
'0:12.880',-1.500
'0:12.882',-1.525
'0:12.884',-1.590
'0:12.886',-1.670
'0:12.888',-1.635
'0:12.890',-1.690
'0:12.892',-1.700
'0:12.894',-1.640
'0:12.896',-1.585
'0:12.898',-1.600
'0:12.900',-1.585
'0:12.902',-1.635
'0:12.904',-1.680
'0:12.906',-1.720
'0:12.908',-1.705
'0:12.910',-1.710
'0:12.912',-1.690
'0:12.914',-1.665
'0:12.916',-1.590
'0:12.918',-1.590
'0:12.920',-1.625
'0:12.922',-1.620
'0:12.924',-1.665
'0:12.926',-1.730
'0:12.928',-1.745
'0:12.930',-1.730
'0:12.932',-1.675
'0:12.934',-1.680
'0:12.936',-1.590
'0:12.938',-1.555
'0:12.940',-1.635
'0:12.942',-1.655
'0:12.944',-1.660
'0:12.946',-1.735
'0:12.948',-1.760
'0:12.950',-1.735
'0:12.952',-1.700
'0:12.954',-1.655
'0:12.956',-1.550
'0:12.958',-1.585
'0:12.960',-1.600
'0:12.962',-1.655
'0:12.964',-1.695
'0:12.966',-1.765
'0:12.968',-1.695
'0:12.970',-1.740
'0:12.972',-1.675
'0:12.974',-1.670
'0:12.976',-1.590
'0:12.978',-1.585
'0:12.980',-1.535
'0:12.982',-1.675
'0:12.984',-1.610
'0:12.986',-1.725
'0:12.988',-1.735
'0:12.990',-1.685
'0:12.992',-1.705
'0:12.994',-1.615
'0:12.996',-1.580
'0:12.998',-1.565
'0:13.000',-1.540
'0:13.002',-1.555
'0:13.004',-1.605
'0:13.006',-1.685
'0:13.008',-1.710
'0:13.010',-1.735
'0:13.012',-1.635
'0:13.014',-1.600
'0:13.016',-1.540
'0:13.018',-1.535
'0:13.020',-1.580
'0:13.022',-1.590
'0:13.024',-1.620
'0:13.026',-1.745
'0:13.028',-1.705
'0:13.030',-1.655
'0:13.032',-1.590
'0:13.034',-1.560
'0:13.036',-1.560
'0:13.038',-1.580
'0:13.040',-1.555
'0:13.042',-1.595
'0:13.044',-1.675
'0:13.046',-1.685
'0:13.048',-1.695
'0:13.050',-1.680
'0:13.052',-1.620
'0:13.054',-1.585
'0:13.056',-1.570
'0:13.058',-1.560
'0:13.060',-1.520
'0:13.062',-1.570
'0:13.064',-1.615
'0:13.066',-1.690
'0:13.068',-1.735
'0:13.070',-1.670
'0:13.072',-1.620
'0:13.074',-1.540
'0:13.076',-1.545
'0:13.078',-1.565
'0:13.080',-1.555
'0:13.082',-1.605
'0:13.084',-1.650
'0:13.086',-1.730
'0:13.088',-1.675
'0:13.090',-1.680
'0:13.092',-1.610
'0:13.094',-1.545
'0:13.096',-1.505
'0:13.098',-1.550
'0:13.100',-1.560
'0:13.102',-1.620
'0:13.104',-1.665
'0:13.106',-1.685
'0:13.108',-1.680
'0:13.110',-1.680
'0:13.112',-1.645
'0:13.114',-1.595
'0:13.116',-1.550
'0:13.118',-1.555
'0:13.120',-1.560
'0:13.122',-1.655
'0:13.124',-1.670
'0:13.126',-1.645
'0:13.128',-1.660
'0:13.130',-1.670
'0:13.132',-1.635
'0:13.134',-1.570
'0:13.136',-1.545
'0:13.138',-1.530
'0:13.140',-1.575
'0:13.142',-1.595
'0:13.144',-1.635
'0:13.146',-1.665
'0:13.148',-1.660
'0:13.150',-1.665
'0:13.152',-1.570
'0:13.154',-1.595
'0:13.156',-1.565
'0:13.158',-1.550
'0:13.160',-1.590
'0:13.162',-1.590
'0:13.164',-1.675
'0:13.166',-1.700
'0:13.168',-1.670
'0:13.170',-1.650
'0:13.172',-1.620
'0:13.174',-1.550
'0:13.176',-1.540
'0:13.178',-1.500
'0:13.180',-1.550
'0:13.182',-1.580
'0:13.184',-1.610
'0:13.186',-1.630
'0:13.188',-1.670
'0:13.190',-1.685
'0:13.192',-1.650
'0:13.194',-1.550
'0:13.196',-1.505
'0:13.198',-1.520
'0:13.200',-1.495
'0:13.202',-1.580
'0:13.204',-1.640
'0:13.206',-1.640
'0:13.208',-1.710
'0:13.210',-1.675
'0:13.212',-1.570
'0:13.214',-1.530
'0:13.216',-1.510
'0:13.218',-1.550
'0:13.220',-1.580
'0:13.222',-1.610
'0:13.224',-1.685
'0:13.226',-1.665
'0:13.228',-1.645
'0:13.230',-1.625
'0:13.232',-1.600
'0:13.234',-1.550
'0:13.236',-1.520
'0:13.238',-1.545
'0:13.240',-1.530
'0:13.242',-1.600
'0:13.244',-1.640
'0:13.246',-1.630
'0:13.248',-1.615
'0:13.250',-1.605
'0:13.252',-1.605
'0:13.254',-1.490
'0:13.256',-1.465
'0:13.258',-1.560
'0:13.260',-1.540
'0:13.262',-1.580
'0:13.264',-1.640
'0:13.266',-1.590
'0:13.268',-1.605
'0:13.270',-1.560
'0:13.272',-1.595
'0:13.274',-1.515
'0:13.276',-1.545
'0:13.278',-1.540
'0:13.280',-1.520
'0:13.282',-1.565
'0:13.284',-1.610
'0:13.286',-1.650
'0:13.288',-1.590
'0:13.290',-1.590
'0:13.292',-1.560
'0:13.294',-1.535
'0:13.296',-1.540
'0:13.298',-1.495
'0:13.300',-1.545
'0:13.302',-1.540
'0:13.304',-1.600
'0:13.306',-1.580
'0:13.308',-1.600
'0:13.310',-1.570
'0:13.312',-1.560
'0:13.314',-1.465
'0:13.316',-1.470
'0:13.318',-1.470
'0:13.320',-1.550
'0:13.322',-1.580
'0:13.324',-1.620
'0:13.326',-1.625
'0:13.328',-1.605
'0:13.330',-1.565
'0:13.332',-1.535
'0:13.334',-1.450
'0:13.336',-1.485
'0:13.338',-1.435
'0:13.340',-1.495
'0:13.342',-1.540
'0:13.344',-1.580
'0:13.346',-1.585
'0:13.348',-1.620
'0:13.350',-1.540
'0:13.352',-1.535
'0:13.354',-1.490
'0:13.356',-1.475
'0:13.358',-1.480
'0:13.360',-1.535
'0:13.362',-1.585
'0:13.364',-1.620
'0:13.366',-1.605
'0:13.368',-1.605
'0:13.370',-1.540
'0:13.372',-1.450
'0:13.374',-1.455
'0:13.376',-1.430
'0:13.378',-1.445
'0:13.380',-1.515
'0:13.382',-1.550
'0:13.384',-1.600
'0:13.386',-1.615
'0:13.388',-1.555
'0:13.390',-1.525
'0:13.392',-1.405
'0:13.394',-1.445
'0:13.396',-1.455
'0:13.398',-1.455
'0:13.400',-1.455
'0:13.402',-1.555
'0:13.404',-1.545
'0:13.406',-1.595
'0:13.408',-1.580
'0:13.410',-1.505
'0:13.412',-1.420
'0:13.414',-1.415
'0:13.416',-1.410
'0:13.418',-1.475
'0:13.420',-1.465
'0:13.422',-1.490
'0:13.424',-1.515
'0:13.426',-1.555
'0:13.428',-1.550
'0:13.430',-1.430
'0:13.432',-1.440
'0:13.434',-1.385
'0:13.436',-1.370
'0:13.438',-1.430
'0:13.440',-1.450
'0:13.442',-1.540
'0:13.444',-1.530
'0:13.446',-1.570
'0:13.448',-1.460
'0:13.450',-1.410
'0:13.452',-1.345
'0:13.454',-1.420
'0:13.456',-1.365
'0:13.458',-1.390
'0:13.460',-1.495
'0:13.462',-1.535
'0:13.464',-1.480
'0:13.466',-1.515
'0:13.468',-1.500
'0:13.470',-1.470
'0:13.472',-1.420
'0:13.474',-1.425
'0:13.476',-1.405
'0:13.478',-1.445
'0:13.480',-1.485
'0:13.482',-1.520
'0:13.484',-1.565
'0:13.486',-1.545
'0:13.488',-1.495
'0:13.490',-1.485
'0:13.492',-1.430
'0:13.494',-1.460
'0:13.496',-1.470
'0:13.498',-1.400
'0:13.500',-1.450
'0:13.502',-1.520
'0:13.504',-1.565
'0:13.506',-1.575
'0:13.508',-1.510
'0:13.510',-1.485
'0:13.512',-1.455
'0:13.514',-1.410
'0:13.516',-1.445
'0:13.518',-1.425
'0:13.520',-1.485
'0:13.522',-1.545
'0:13.524',-1.605
'0:13.526',-1.485
'0:13.528',-1.490
'0:13.530',-1.465
'0:13.532',-1.380
'0:13.534',-1.430
'0:13.536',-1.445
'0:13.538',-1.420
'0:13.540',-1.460
'0:13.542',-1.535
'0:13.544',-1.530
'0:13.546',-1.535
'0:13.548',-1.465
'0:13.550',-1.405
'0:13.552',-1.250
'0:13.554',-1.180
'0:13.556',-1.155
'0:13.558',-1.055
'0:13.560',-1.030
'0:13.562',-1.005
'0:13.564',-1.000
'0:13.566',-1.010
'0:13.568',-1.075
'0:13.570',-1.155
'0:13.572',-1.110
'0:13.574',-1.175
'0:13.576',-1.170
'0:13.578',-1.315
'0:13.580',-1.445
'0:13.582',-1.755
'0:13.584',-1.780
'0:13.586',-1.775
'0:13.588',-1.725
'0:13.590',-1.670
'0:13.592',-1.565
'0:13.594',-1.580
'0:13.596',-1.565
'0:13.598',-1.600
'0:13.600',-1.565
'0:13.602',-1.625
'0:13.604',-1.600
'0:13.606',-1.565
'0:13.608',-1.510
'0:13.610',-1.465
'0:13.612',-1.415
'0:13.614',-1.420
'0:13.616',-1.345
'0:13.618',-1.370
'0:13.620',-1.405
'0:13.622',-1.470
'0:13.624',-1.450
'0:13.626',-1.485
'0:13.628',-1.445
'0:13.630',-1.415
'0:13.632',-1.385
'0:13.634',-1.355
'0:13.636',-1.330
'0:13.638',-1.405
'0:13.640',-1.405
'0:13.642',-1.480
'0:13.644',-1.450
'0:13.646',-1.435
'0:13.648',-1.375
'0:13.650',-1.380
'0:13.652',-1.340
'0:13.654',-1.255
'0:13.656',-1.350
'0:13.658',-1.355
'0:13.660',-1.395
'0:13.662',-1.445
'0:13.664',-1.450
'0:13.666',-1.420
'0:13.668',-1.380
'0:13.670',-1.350
'0:13.672',-1.305
'0:13.674',-1.295
'0:13.676',-1.310
'0:13.678',-1.375
'0:13.680',-1.405
'0:13.682',-1.450
'0:13.684',-1.425
'0:13.686',-1.415
'0:13.688',-1.330
'0:13.690',-1.280
'0:13.692',-1.315
'0:13.694',-1.310
'0:13.696',-1.235
'0:13.698',-1.300
'0:13.700',-1.365
'0:13.702',-1.460
'0:13.704',-1.435
'0:13.706',-1.405
'0:13.708',-1.360
'0:13.710',-1.290
'0:13.712',-1.275
'0:13.714',-1.265
'0:13.716',-1.250
'0:13.718',-1.325
