'Elapsed time','ECG I'
'hh:mm:ss.mmm','mV'
'0:00.000',-1.450
'0:00.002',-1.500
'0:00.004',-1.505
'0:00.006',-1.480
'0:00.008',-1.420
'0:00.010',-1.445
'0:00.012',-1.445
'0:00.014',-1.495
'0:00.016',-1.510
'0:00.018',-1.435
'0:00.020',-1.465
'0:00.022',-1.535
'0:00.024',-1.450
'0:00.026',-1.460
'0:00.028',-1.585
'0:00.030',-1.565
'0:00.032',-1.540
'0:00.034',-1.365
'0:00.036',-1.450
'0:00.038',-1.460
'0:00.040',-1.405
'0:00.042',-1.415
'0:00.044',-1.475
'0:00.046',-1.500
'0:00.048',-1.530
'0:00.050',-1.485
'0:00.052',-1.510
'0:00.054',-1.505
'0:00.056',-1.520
'0:00.058',-1.530
'0:00.060',-1.525
'0:00.062',-1.465
'0:00.064',-1.420
'0:00.066',-1.305
'0:00.068',-1.240
'0:00.070',-1.245
'0:00.072',-1.115
'0:00.074',-1.065
'0:00.076',-1.060
'0:00.078',-1.085
'0:00.080',-1.185
'0:00.082',-1.270
'0:00.084',-1.180
'0:00.086',-1.225
'0:00.088',-1.315
'0:00.090',-1.525
'0:00.092',-1.605
'0:00.094',-1.580
'0:00.096',-1.680
'0:00.098',-1.740
'0:00.100',-1.780
'0:00.102',-1.825
'0:00.104',-1.650
'0:00.106',-1.785
'0:00.108',-1.725
'0:00.110',-1.785
'0:00.112',-1.790
'0:00.114',-1.695
'0:00.116',-1.550
'0:00.118',-1.610
'0:00.120',-1.560
'0:00.122',-1.560
'0:00.124',-1.640
'0:00.126',-1.510
'0:00.128',-1.460
'0:00.130',-1.510
'0:00.132',-1.525
'0:00.134',-1.560
'0:00.136',-1.555
'0:00.138',-1.575
'0:00.140',-1.540
'0:00.142',-1.520
'0:00.144',-1.550
'0:00.146',-1.530
'0:00.148',-1.540
'0:00.150',-1.475
'0:00.152',-1.505
'0:00.154',-1.510
'0:00.156',-1.525
'0:00.158',-1.510
'0:00.160',-1.515
'0:00.162',-1.500
'0:00.164',-1.485
'0:00.166',-1.505
'0:00.168',-1.550
'0:00.170',-1.480
'0:00.172',-1.590
'0:00.174',-1.620
'0:00.176',-1.500
'0:00.178',-1.485
'0:00.180',-1.470
'0:00.182',-1.515
'0:00.184',-1.515
'0:00.186',-1.495
'0:00.188',-1.470
'0:00.190',-1.515
'0:00.192',-1.535
'0:00.194',-1.540
'0:00.196',-1.570
'0:00.198',-1.515
'0:00.200',-1.500
'0:00.202',-1.475
'0:00.204',-1.515
'0:00.206',-1.395
'0:00.208',-1.405
'0:00.210',-1.505
'0:00.212',-1.440
'0:00.214',-1.485
'0:00.216',-1.470
'0:00.218',-1.455
'0:00.220',-1.440
'0:00.222',-1.475
'0:00.224',-1.480
'0:00.226',-1.405
'0:00.228',-1.375
'0:00.230',-1.370
'0:00.232',-1.310
'0:00.234',-1.460
'0:00.236',-1.430
'0:00.238',-1.280
'0:00.240',-1.340
'0:00.242',-1.335
'0:00.244',-1.285
'0:00.246',-1.390
'0:00.248',-1.350
'0:00.250',-1.315
'0:00.252',-1.330
'0:00.254',-1.370
'0:00.256',-1.325
'0:00.258',-1.315
'0:00.260',-1.250
'0:00.262',-1.300
'0:00.264',-1.300
'0:00.266',-1.300
'0:00.268',-1.310
'0:00.270',-1.300
'0:00.272',-1.325
'0:00.274',-1.290
'0:00.276',-1.335
'0:00.278',-1.430
'0:00.280',-1.360
'0:00.282',-1.220
'0:00.284',-1.290
'0:00.286',-1.370
'0:00.288',-1.385
'0:00.290',-1.380
'0:00.292',-1.380
'0:00.294',-1.365
'0:00.296',-1.420
'0:00.298',-1.425
'0:00.300',-1.435
'0:00.302',-1.445
'0:00.304',-1.530
'0:00.306',-1.475
'0:00.308',-1.510
'0:00.310',-1.505
'0:00.312',-1.545
'0:00.314',-1.575
'0:00.316',-1.550
'0:00.318',-1.510
'0:00.320',-1.550
'0:00.322',-1.605
'0:00.324',-1.645
'0:00.326',-1.620
'0:00.328',-1.585
'0:00.330',-1.620
'0:00.332',-1.600
'0:00.334',-1.565
'0:00.336',-1.580
'0:00.338',-1.615
'0:00.340',-1.640
'0:00.342',-1.625
'0:00.344',-1.550
'0:00.346',-1.590
'0:00.348',-1.645
'0:00.350',-1.660
'0:00.352',-1.740
'0:00.354',-1.585
'0:00.356',-1.505
'0:00.358',-1.705
'0:00.360',-1.500
'0:00.362',-1.620
'0:00.364',-1.615
'0:00.366',-1.585
'0:00.368',-1.620
'0:00.370',-1.590
'0:00.372',-1.610
'0:00.374',-1.620
'0:00.376',-1.650
'0:00.378',-1.655
'0:00.380',-1.660
'0:00.382',-1.625
'0:00.384',-1.685
'0:00.386',-1.650
'0:00.388',-1.650
'0:00.390',-1.655
'0:00.392',-1.660
'0:00.394',-1.645
'0:00.396',-1.650
'0:00.398',-1.670
'0:00.400',-1.670
'0:00.402',-1.670
'0:00.404',-1.665
'0:00.406',-1.655
'0:00.408',-1.675
'0:00.410',-1.720
'0:00.412',-1.670
'0:00.414',-1.665
'0:00.416',-1.690
'0:00.418',-1.700
'0:00.420',-1.690
'0:00.422',-1.720
'0:00.424',-1.650
'0:00.426',-1.570
'0:00.428',-1.695
'0:00.430',-1.680
'0:00.432',-1.635
'0:00.434',-1.680
'0:00.436',-1.645
'0:00.438',-1.650
'0:00.440',-1.635
'0:00.442',-1.680
'0:00.444',-1.720
'0:00.446',-1.715
'0:00.448',-1.745
'0:00.450',-1.735
'0:00.452',-1.670
'0:00.454',-1.680
'0:00.456',-1.710
'0:00.458',-1.710
'0:00.460',-1.690
'0:00.462',-1.690
'0:00.464',-1.745
'0:00.466',-1.710
'0:00.468',-1.710
'0:00.470',-1.675
'0:00.472',-1.740
'0:00.474',-1.720
'0:00.476',-1.705
'0:00.478',-1.785
'0:00.480',-1.785
'0:00.482',-1.725
'0:00.484',-1.700
'0:00.486',-1.715
'0:00.488',-1.650
'0:00.490',-1.660
'0:00.492',-1.720
'0:00.494',-1.720
'0:00.496',-1.670
'0:00.498',-1.740
'0:00.500',-1.795
'0:00.502',-1.715
'0:00.504',-1.705
'0:00.506',-1.750
'0:00.508',-1.735
'0:00.510',-1.775
'0:00.512',-1.780
'0:00.514',-1.735
'0:00.516',-1.675
'0:00.518',-1.740
'0:00.520',-1.725
'0:00.522',-1.715
'0:00.524',-1.810
'0:00.526',-1.760
'0:00.528',-1.710
'0:00.530',-1.745
'0:00.532',-1.715
'0:00.534',-1.780
'0:00.536',-1.790
'0:00.538',-1.780
'0:00.540',-1.745
'0:00.542',-1.725
'0:00.544',-1.815
'0:00.546',-1.885
'0:00.548',-1.710
'0:00.550',-1.745
'0:00.552',-1.710
'0:00.554',-1.695
'0:00.556',-1.755
'0:00.558',-1.720
'0:00.560',-1.725
'0:00.562',-1.695
'0:00.564',-1.705
'0:00.566',-1.730
'0:00.568',-1.790
'0:00.570',-1.750
'0:00.572',-1.740
'0:00.574',-1.755
'0:00.576',-1.770
'0:00.578',-1.840
'0:00.580',-1.710
'0:00.582',-1.685
'0:00.584',-1.600
'0:00.586',-1.625
'0:00.588',-1.700
'0:00.590',-1.685
'0:00.592',-1.685
'0:00.594',-1.670
'0:00.596',-1.665
'0:00.598',-1.720
'0:00.600',-1.600
'0:00.602',-1.670
'0:00.604',-1.680
'0:00.606',-1.620
'0:00.608',-1.660
'0:00.610',-1.650
'0:00.612',-1.660
'0:00.614',-1.735
'0:00.616',-1.775
'0:00.618',-1.800
'0:00.620',-1.725
'0:00.622',-1.740
'0:00.624',-1.770
'0:00.626',-1.815
'0:00.628',-1.895
'0:00.630',-1.800
'0:00.632',-1.875
'0:00.634',-1.785
'0:00.636',-1.750
'0:00.638',-1.780
'0:00.640',-1.805
'0:00.642',-1.820
'0:00.644',-1.810
'0:00.646',-1.880
'0:00.648',-1.750
'0:00.650',-1.790
'0:00.652',-1.825
'0:00.654',-1.840
'0:00.656',-1.945
'0:00.658',-1.880
'0:00.660',-1.820
'0:00.662',-1.995
'0:00.664',-1.850
'0:00.666',-1.780
'0:00.668',-1.835
'0:00.670',-1.805
'0:00.672',-1.840
'0:00.674',-1.840
'0:00.676',-1.815
'0:00.678',-1.850
'0:00.680',-1.865
'0:00.682',-1.870
'0:00.684',-1.935
'0:00.686',-1.905
'0:00.688',-1.875
'0:00.690',-1.815
'0:00.692',-1.685
'0:00.694',-1.600
'0:00.696',-1.535
'0:00.698',-1.485
'0:00.700',-1.445
'0:00.702',-1.420
'0:00.704',-1.500
'0:00.706',-1.530
'0:00.708',-1.590
'0:00.710',-1.615
'0:00.712',-1.730
'0:00.714',-1.770
'0:00.716',-1.940
'0:00.718',-1.915
'0:00.720',-1.930
'0:00.722',-2.095
'0:00.724',-2.145
'0:00.726',-2.165
'0:00.728',-2.295
'0:00.730',-2.165
'0:00.732',-2.110
'0:00.734',-2.110
'0:00.736',-2.120
'0:00.738',-2.100
'0:00.740',-2.030
'0:00.742',-2.040
'0:00.744',-2.020
'0:00.746',-2.030
'0:00.748',-1.965
'0:00.750',-1.955
'0:00.752',-1.945
'0:00.754',-1.945
'0:00.756',-1.955
'0:00.758',-1.940
'0:00.760',-1.890
'0:00.762',-1.935
'0:00.764',-1.905
'0:00.766',-1.940
'0:00.768',-1.905
'0:00.770',-1.940
'0:00.772',-1.915
'0:00.774',-1.890
'0:00.776',-1.875
'0:00.778',-1.920
'0:00.780',-1.965
'0:00.782',-1.945
'0:00.784',-1.965
'0:00.786',-1.945
'0:00.788',-1.835
'0:00.790',-1.870
'0:00.792',-1.915
'0:00.794',-1.925
'0:00.796',-1.915
'0:00.798',-1.915
'0:00.800',-1.900
'0:00.802',-1.910
'0:00.804',-1.895
'0:00.806',-1.930
'0:00.808',-1.980
'0:00.810',-1.920
'0:00.812',-1.840
'0:00.814',-1.885
'0:00.816',-1.930
'0:00.818',-1.835
'0:00.820',-1.855
'0:00.822',-1.815
'0:00.824',-1.885
'0:00.826',-1.855
'0:00.828',-1.860
'0:00.830',-1.970
'0:00.832',-1.865
'0:00.834',-1.810
'0:00.836',-1.780
'0:00.838',-1.805
'0:00.840',-1.815
'0:00.842',-1.785
'0:00.844',-1.800
'0:00.846',-1.785
'0:00.848',-1.855
'0:00.850',-1.895
'0:00.852',-1.820
'0:00.854',-1.785
'0:00.856',-1.745
'0:00.858',-1.720
'0:00.860',-1.730
'0:00.862',-1.755
'0:00.864',-1.745
'0:00.866',-1.800
'0:00.868',-1.740
'0:00.870',-1.650
'0:00.872',-1.670
'0:00.874',-1.670
'0:00.876',-1.685
'0:00.878',-1.655
'0:00.880',-1.625
'0:00.882',-1.620
'0:00.884',-1.730
'0:00.886',-1.680
'0:00.888',-1.675
'0:00.890',-1.630
'0:00.892',-1.605
'0:00.894',-1.605
'0:00.896',-1.615
'0:00.898',-1.635
'0:00.900',-1.610
'0:00.902',-1.575
'0:00.904',-1.635
'0:00.906',-1.610
'0:00.908',-1.595
'0:00.910',-1.635
'0:00.912',-1.610
'0:00.914',-1.650
'0:00.916',-1.625
'0:00.918',-1.655
'0:00.920',-1.620
'0:00.922',-1.665
'0:00.924',-1.710
'0:00.926',-1.725
'0:00.928',-1.700
'0:00.930',-1.725
'0:00.932',-1.700
'0:00.934',-1.745
'0:00.936',-1.735
'0:00.938',-1.710
'0:00.940',-1.790
'0:00.942',-1.730
'0:00.944',-1.815
'0:00.946',-1.980
'0:00.948',-1.970
'0:00.950',-1.820
'0:00.952',-1.815
'0:00.954',-1.855
'0:00.956',-1.825
'0:00.958',-1.830
'0:00.960',-1.835
'0:00.962',-1.895
'0:00.964',-1.905
'0:00.966',-1.895
'0:00.968',-1.865
'0:00.970',-1.820
'0:00.972',-1.900
'0:00.974',-1.890
'0:00.976',-1.900
'0:00.978',-1.965
'0:00.980',-1.940
'0:00.982',-1.940
'0:00.984',-1.940
'0:00.986',-2.005
'0:00.988',-1.990
'0:00.990',-1.855
'0:00.992',-1.935
'0:00.994',-2.010
'0:00.996',-1.935
'0:00.998',-1.935
'0:01.000',-1.940
'0:01.002',-1.910
'0:01.004',-1.950
'0:01.006',-2.005
'0:01.008',-1.965
'0:01.010',-2.015
'0:01.012',-1.970
'0:01.014',-2.010
'0:01.016',-1.975
'0:01.018',-2.075
'0:01.020',-2.150
'0:01.022',-1.875
'0:01.024',-1.975
'0:01.026',-1.960
'0:01.028',-1.850
'0:01.030',-1.880
'0:01.032',-1.970
'0:01.034',-1.950
'0:01.036',-1.940
'0:01.038',-1.965
'0:01.040',-2.010
'0:01.042',-2.010
'0:01.044',-1.990
'0:01.046',-2.005
'0:01.048',-2.005
'0:01.050',-1.985
'0:01.052',-1.990
'0:01.054',-2.000
'0:01.056',-2.085
'0:01.058',-2.070
'0:01.060',-1.965
'0:01.062',-2.005
'0:01.064',-2.030
'0:01.066',-2.040
'0:01.068',-2.040
'0:01.070',-1.970
'0:01.072',-1.945
'0:01.074',-1.950
'0:01.076',-1.945
'0:01.078',-2.040
'0:01.080',-2.075
'0:01.082',-1.935
'0:01.084',-2.015
'0:01.086',-2.050
'0:01.088',-2.075
'0:01.090',-2.080
'0:01.092',-2.070
'0:01.094',-2.015
'0:01.096',-2.115
'0:01.098',-2.150
'0:01.100',-1.880
'0:01.102',-1.940
'0:01.104',-1.995
'0:01.106',-1.985
'0:01.108',-2.010
'0:01.110',-2.045
'0:01.112',-2.070
'0:01.114',-1.915
'0:01.116',-2.020
'0:01.118',-2.025
'0:01.120',-1.975
'0:01.122',-1.975
'0:01.124',-1.975
'0:01.126',-1.995
'0:01.128',-1.960
'0:01.130',-1.990
'0:01.132',-2.015
'0:01.134',-2.075
'0:01.136',-2.005
'0:01.138',-1.945
'0:01.140',-2.000
'0:01.142',-1.955
'0:01.144',-1.900
'0:01.146',-1.965
'0:01.148',-1.955
'0:01.150',-1.905
'0:01.152',-1.970
'0:01.154',-1.955
'0:01.156',-1.895
'0:01.158',-1.915
'0:01.160',-1.890
'0:01.162',-1.915
'0:01.164',-1.905
'0:01.166',-1.890
'0:01.168',-1.915
'0:01.170',-1.995
'0:01.172',-1.975
'0:01.174',-2.040
'0:01.176',-2.060
'0:01.178',-2.060
'0:01.180',-2.005
'0:01.182',-2.000
'0:01.184',-1.975
'0:01.186',-2.115
'0:01.188',-2.125
'0:01.190',-2.130
'0:01.192',-2.060
'0:01.194',-2.085
'0:01.196',-2.190
'0:01.198',-2.125
'0:01.200',-2.080
'0:01.202',-2.070
'0:01.204',-2.080
'0:01.206',-2.110
'0:01.208',-2.125
'0:01.210',-2.115
'0:01.212',-2.160
'0:01.214',-2.140
'0:01.216',-2.140
'0:01.218',-2.020
'0:01.220',-1.960
'0:01.222',-2.120
'0:01.224',-2.115
'0:01.226',-2.130
'0:01.228',-2.140
'0:01.230',-2.075
'0:01.232',-2.140
'0:01.234',-2.090
'0:01.236',-2.080
'0:01.238',-2.090
'0:01.240',-2.140
'0:01.242',-2.205
'0:01.244',-2.185
'0:01.246',-2.150
'0:01.248',-2.070
'0:01.250',-1.955
'0:01.252',-1.865
'0:01.254',-1.805
'0:01.256',-1.800
'0:01.258',-1.685
'0:01.260',-1.635
'0:01.262',-1.665
'0:01.264',-1.675
'0:01.266',-1.725
'0:01.268',-1.800
'0:01.270',-1.825
'0:01.272',-1.890
'0:01.274',-1.995
'0:01.276',-2.195
'0:01.278',-2.285
'0:01.280',-2.295
'0:01.282',-2.380
'0:01.284',-2.400
'0:01.286',-2.435
'0:01.288',-2.460
'0:01.290',-2.470
'0:01.292',-2.415
'0:01.294',-2.335
'0:01.296',-2.360
'0:01.298',-2.410
'0:01.300',-2.305
'0:01.302',-2.325
'0:01.304',-2.245
'0:01.306',-2.220
'0:01.308',-2.205
'0:01.310',-2.215
'0:01.312',-2.190
'0:01.314',-2.140
'0:01.316',-2.180
'0:01.318',-2.135
'0:01.320',-2.210
'0:01.322',-2.265
'0:01.324',-2.255
'0:01.326',-2.245
'0:01.328',-2.185
'0:01.330',-2.130
'0:01.332',-2.245
'0:01.334',-2.230
'0:01.336',-2.060
'0:01.338',-2.085
'0:01.340',-2.125
'0:01.342',-2.195
'0:01.344',-2.140
'0:01.346',-2.170
'0:01.348',-2.130
'0:01.350',-2.110
'0:01.352',-2.160
'0:01.354',-2.125
'0:01.356',-2.105
'0:01.358',-2.110
'0:01.360',-2.130
'0:01.362',-2.170
'0:01.364',-2.200
'0:01.366',-2.185
'0:01.368',-2.175
'0:01.370',-2.160
'0:01.372',-2.120
'0:01.374',-2.115
'0:01.376',-2.085
'0:01.378',-2.130
'0:01.380',-2.115
'0:01.382',-2.155
'0:01.384',-2.135
'0:01.386',-2.110
'0:01.388',-2.120
'0:01.390',-2.105
'0:01.392',-2.150
'0:01.394',-2.025
'0:01.396',-2.075
'0:01.398',-2.060
'0:01.400',-2.090
'0:01.402',-1.950
'0:01.404',-1.930
'0:01.406',-1.955
'0:01.408',-2.015
'0:01.410',-2.025
'0:01.412',-2.025
'0:01.414',-2.005
'0:01.416',-1.990
'0:01.418',-1.955
'0:01.420',-2.000
'0:01.422',-1.935
'0:01.424',-1.950
'0:01.426',-1.935
'0:01.428',-1.945
'0:01.430',-1.925
'0:01.432',-1.815
'0:01.434',-1.870
'0:01.436',-1.965
'0:01.438',-1.935
'0:01.440',-1.915
'0:01.442',-1.870
'0:01.444',-1.835
'0:01.446',-1.850
'0:01.448',-1.810
'0:01.450',-1.820
'0:01.452',-1.875
'0:01.454',-1.865
'0:01.456',-1.830
'0:01.458',-1.855
'0:01.460',-1.865
'0:01.462',-1.910
'0:01.464',-1.830
'0:01.466',-1.860
'0:01.468',-1.910
'0:01.470',-1.890
'0:01.472',-1.885
'0:01.474',-1.910
'0:01.476',-1.865
'0:01.478',-1.900
'0:01.480',-1.950
'0:01.482',-2.000
'0:01.484',-1.955
'0:01.486',-1.975
'0:01.488',-1.900
'0:01.490',-1.975
'0:01.492',-1.965
'0:01.494',-2.025
'0:01.496',-2.045
'0:01.498',-2.075
'0:01.500',-1.990
'0:01.502',-2.110
'0:01.504',-2.125
'0:01.506',-2.035
'0:01.508',-2.095
'0:01.510',-2.125
'0:01.512',-2.105
'0:01.514',-2.100
'0:01.516',-2.135
'0:01.518',-2.100
'0:01.520',-2.140
'0:01.522',-2.095
'0:01.524',-2.160
'0:01.526',-2.165
'0:01.528',-2.115
'0:01.530',-2.135
'0:01.532',-2.175
'0:01.534',-2.155
'0:01.536',-2.145
'0:01.538',-2.290
'0:01.540',-2.135
'0:01.542',-2.110
'0:01.544',-2.135
'0:01.546',-2.160
'0:01.548',-2.190
'0:01.550',-2.185
'0:01.552',-2.185
'0:01.554',-2.195
'0:01.556',-2.185
'0:01.558',-2.210
'0:01.560',-2.190
'0:01.562',-2.210
'0:01.564',-2.195
'0:01.566',-2.200
'0:01.568',-2.255
'0:01.570',-2.180
'0:01.572',-2.175
'0:01.574',-2.175
'0:01.576',-2.195
'0:01.578',-2.175
'0:01.580',-2.150
'0:01.582',-2.185
'0:01.584',-2.250
'0:01.586',-2.180
'0:01.588',-2.205
'0:01.590',-2.190
'0:01.592',-2.170
'0:01.594',-2.195
'0:01.596',-2.165
'0:01.598',-2.170
'0:01.600',-2.260
'0:01.602',-2.350
'0:01.604',-2.265
'0:01.606',-2.120
'0:01.608',-2.195
'0:01.610',-2.245
'0:01.612',-2.260
'0:01.614',-2.170
'0:01.616',-2.185
'0:01.618',-2.180
'0:01.620',-2.220
'0:01.622',-2.220
'0:01.624',-2.200
'0:01.626',-2.175
'0:01.628',-2.235
'0:01.630',-2.230
'0:01.632',-2.250
'0:01.634',-2.220
'0:01.636',-2.260
'0:01.638',-2.205
'0:01.640',-2.210
'0:01.642',-2.240
'0:01.644',-2.200
'0:01.646',-2.235
'0:01.648',-2.205
'0:01.650',-2.205
'0:01.652',-2.220
'0:01.654',-2.200
'0:01.656',-2.270
'0:01.658',-2.280
'0:01.660',-2.195
'0:01.662',-2.075
'0:01.664',-2.160
'0:01.666',-2.140
'0:01.668',-2.235
'0:01.670',-2.235
'0:01.672',-2.170
'0:01.674',-2.170
'0:01.676',-2.235
'0:01.678',-2.215
'0:01.680',-2.165
'0:01.682',-2.220
'0:01.684',-2.155
'0:01.686',-2.170
'0:01.688',-2.130
'0:01.690',-2.105
'0:01.692',-2.170
'0:01.694',-2.135
'0:01.696',-2.215
'0:01.698',-2.160
'0:01.700',-2.200
'0:01.702',-2.275
'0:01.704',-2.305
'0:01.706',-2.300
'0:01.708',-2.230
'0:01.710',-2.220
'0:01.712',-2.210
'0:01.714',-2.090
'0:01.716',-2.215
'0:01.718',-2.230
'0:01.720',-2.175
'0:01.722',-2.265
'0:01.724',-2.240
'0:01.726',-2.260
'0:01.728',-2.270
'0:01.730',-2.235
'0:01.732',-2.220
'0:01.734',-2.270
'0:01.736',-2.310
'0:01.738',-2.290
'0:01.740',-2.290
'0:01.742',-2.275
'0:01.744',-2.315
'0:01.746',-2.235
'0:01.748',-2.200
'0:01.750',-2.275
'0:01.752',-2.285
'0:01.754',-2.290
'0:01.756',-2.285
'0:01.758',-2.235
'0:01.760',-2.345
'0:01.762',-2.240
'0:01.764',-2.170
'0:01.766',-2.245
'0:01.768',-2.280
'0:01.770',-2.285
'0:01.772',-2.220
'0:01.774',-2.240
'0:01.776',-2.215
'0:01.778',-2.255
'0:01.780',-2.285
'0:01.782',-2.290
'0:01.784',-2.245
'0:01.786',-2.285
'0:01.788',-2.295
'0:01.790',-2.285
'0:01.792',-2.210
'0:01.794',-2.275
'0:01.796',-2.195
'0:01.798',-2.155
'0:01.800',-2.055
'0:01.802',-1.980
'0:01.804',-1.955
'0:01.806',-1.895
'0:01.808',-1.885
'0:01.810',-1.945
'0:01.812',-1.965
'0:01.814',-1.965
'0:01.816',-2.025
'0:01.818',-2.130
'0:01.820',-2.150
'0:01.822',-2.305
'0:01.824',-2.425
'0:01.826',-2.435
'0:01.828',-2.500
'0:01.830',-2.515
'0:01.832',-2.550
'0:01.834',-2.420
'0:01.836',-2.445
'0:01.838',-2.455
'0:01.840',-2.505
'0:01.842',-2.520
'0:01.844',-2.565
'0:01.846',-2.520
'0:01.848',-2.465
'0:01.850',-2.455
'0:01.852',-2.380
'0:01.854',-2.360
'0:01.856',-2.375
'0:01.858',-2.460
'0:01.860',-2.390
'0:01.862',-2.240
'0:01.864',-2.300
'0:01.866',-2.355
'0:01.868',-2.345
'0:01.870',-2.265
'0:01.872',-2.310
'0:01.874',-2.240
'0:01.876',-2.250
'0:01.878',-2.320
'0:01.880',-2.265
'0:01.882',-2.225
'0:01.884',-2.250
'0:01.886',-2.275
'0:01.888',-2.285
'0:01.890',-2.315
'0:01.892',-2.305
'0:01.894',-2.265
'0:01.896',-2.295
'0:01.898',-2.220
'0:01.900',-2.300
'0:01.902',-2.245
'0:01.904',-2.300
'0:01.906',-2.290
'0:01.908',-2.230
'0:01.910',-2.170
'0:01.912',-2.240
'0:01.914',-2.245
'0:01.916',-2.190
'0:01.918',-2.245
'0:01.920',-2.270
'0:01.922',-2.250
'0:01.924',-2.230
'0:01.926',-2.210
'0:01.928',-2.260
'0:01.930',-2.190
'0:01.932',-2.280
'0:01.934',-2.285
'0:01.936',-2.155
'0:01.938',-2.255
'0:01.940',-2.290
'0:01.942',-2.170
'0:01.944',-2.180
'0:01.946',-2.250
'0:01.948',-2.085
'0:01.950',-2.120
'0:01.952',-2.120
'0:01.954',-2.105
'0:01.956',-2.120
'0:01.958',-2.145
'0:01.960',-2.150
'0:01.962',-2.105
'0:01.964',-2.095
'0:01.966',-2.075
'0:01.968',-2.060
'0:01.970',-2.080
'0:01.972',-2.120
'0:01.974',-2.065
'0:01.976',-2.035
'0:01.978',-1.965
'0:01.980',-2.100
'0:01.982',-2.125
'0:01.984',-2.040
'0:01.986',-2.040
'0:01.988',-2.070
'0:01.990',-2.040
'0:01.992',-2.020
'0:01.994',-1.990
'0:01.996',-2.055
'0:01.998',-2.055
'0:02.000',-2.100
'0:02.002',-2.105
'0:02.004',-2.070
'0:02.006',-2.050
'0:02.008',-1.995
'0:02.010',-2.010
'0:02.012',-2.005
'0:02.014',-1.990
'0:02.016',-2.005
'0:02.018',-2.060
'0:02.020',-2.095
'0:02.022',-2.105
'0:02.024',-2.070
'0:02.026',-1.985
'0:02.028',-2.055
'0:02.030',-2.050
'0:02.032',-2.120
'0:02.034',-2.095
'0:02.036',-2.075
'0:02.038',-2.110
'0:02.040',-2.125
'0:02.042',-2.115
'0:02.044',-2.170
'0:02.046',-2.170
'0:02.048',-2.205
'0:02.050',-2.160
'0:02.052',-2.105
'0:02.054',-2.230
'0:02.056',-2.255
'0:02.058',-2.320
'0:02.060',-2.200
'0:02.062',-2.255
'0:02.064',-2.210
'0:02.066',-2.240
'0:02.068',-2.255
'0:02.070',-2.230
'0:02.072',-2.230
'0:02.074',-2.240
'0:02.076',-2.270
'0:02.078',-2.235
'0:02.080',-2.255
'0:02.082',-2.280
'0:02.084',-2.365
'0:02.086',-2.245
'0:02.088',-2.255
'0:02.090',-2.275
'0:02.092',-2.270
'0:02.094',-2.220
'0:02.096',-2.280
'0:02.098',-2.260
'0:02.100',-2.205
'0:02.102',-2.255
'0:02.104',-2.175
'0:02.106',-2.220
'0:02.108',-2.200
'0:02.110',-2.315
'0:02.112',-2.300
'0:02.114',-2.235
'0:02.116',-2.210
'0:02.118',-2.250
'0:02.120',-2.210
'0:02.122',-2.260
'0:02.124',-2.245
'0:02.126',-2.235
'0:02.128',-2.270
'0:02.130',-2.280
'0:02.132',-2.205
'0:02.134',-2.250
'0:02.136',-2.310
'0:02.138',-2.285
'0:02.140',-2.285
'0:02.142',-2.275
'0:02.144',-2.280
'0:02.146',-2.250
'0:02.148',-2.260
'0:02.150',-2.270
'0:02.152',-2.245
'0:02.154',-2.200
'0:02.156',-2.175
'0:02.158',-2.255
'0:02.160',-2.225
'0:02.162',-2.300
'0:02.164',-2.315
'0:02.166',-2.240
'0:02.168',-2.275
'0:02.170',-2.295
'0:02.172',-2.305
'0:02.174',-2.285
'0:02.176',-2.325
'0:02.178',-2.360
'0:02.180',-2.270
'0:02.182',-2.240
'0:02.184',-2.165
'0:02.186',-2.225
'0:02.188',-2.180
'0:02.190',-2.230
'0:02.192',-2.235
'0:02.194',-2.215
'0:02.196',-2.170
'0:02.198',-2.135
'0:02.200',-2.210
'0:02.202',-2.265
'0:02.204',-2.330
'0:02.206',-2.265
'0:02.208',-2.155
'0:02.210',-2.210
'0:02.212',-2.285
'0:02.214',-2.175
'0:02.216',-2.225
'0:02.218',-2.225
'0:02.220',-2.175
'0:02.222',-2.125
'0:02.224',-2.140
'0:02.226',-2.165
'0:02.228',-2.140
'0:02.230',-2.215
'0:02.232',-2.180
'0:02.234',-2.120
'0:02.236',-2.180
'0:02.238',-2.215
'0:02.240',-2.235
'0:02.242',-2.200
'0:02.244',-2.210
'0:02.246',-2.340
'0:02.248',-2.335
'0:02.250',-2.310
'0:02.252',-2.175
'0:02.254',-2.220
'0:02.256',-2.215
'0:02.258',-2.260
'0:02.260',-2.265
'0:02.262',-2.290
'0:02.264',-2.270
'0:02.266',-2.300
'0:02.268',-2.330
'0:02.270',-2.315
'0:02.272',-2.315
'0:02.274',-2.335
'0:02.276',-2.330
'0:02.278',-2.270
'0:02.280',-2.310
'0:02.282',-2.295
'0:02.284',-2.285
'0:02.286',-2.305
'0:02.288',-2.300
'0:02.290',-2.345
'0:02.292',-2.240
'0:02.294',-2.230
'0:02.296',-2.385
'0:02.298',-2.290
'0:02.300',-2.285
'0:02.302',-2.315
'0:02.304',-2.320
'0:02.306',-2.320
'0:02.308',-2.270
'0:02.310',-2.270
'0:02.312',-2.285
'0:02.314',-2.315
'0:02.316',-2.315
'0:02.318',-2.315
'0:02.320',-2.265
'0:02.322',-2.305
'0:02.324',-2.255
'0:02.326',-2.130
'0:02.328',-2.075
'0:02.330',-2.030
'0:02.332',-1.980
'0:02.334',-1.990
'0:02.336',-1.990
'0:02.338',-2.060
'0:02.340',-2.105
'0:02.342',-2.050
'0:02.344',-2.120
'0:02.346',-2.130
'0:02.348',-2.220
'0:02.350',-2.375
'0:02.352',-2.455
'0:02.354',-2.480
'0:02.356',-2.510
'0:02.358',-2.540
'0:02.360',-2.535
'0:02.362',-2.495
'0:02.364',-2.535
'0:02.366',-2.500
'0:02.368',-2.575
'0:02.370',-2.610
'0:02.372',-2.560
'0:02.374',-2.465
'0:02.376',-2.480
'0:02.378',-2.475
'0:02.380',-2.415
'0:02.382',-2.335
'0:02.384',-2.315
'0:02.386',-2.330
'0:02.388',-2.375
'0:02.390',-2.370
'0:02.392',-2.250
'0:02.394',-2.255
'0:02.396',-2.340
'0:02.398',-2.365
'0:02.400',-2.345
'0:02.402',-2.360
'0:02.404',-2.365
'0:02.406',-2.235
'0:02.408',-2.310
'0:02.410',-2.320
'0:02.412',-2.275
'0:02.414',-2.290
'0:02.416',-2.290
'0:02.418',-2.330
'0:02.420',-2.315
'0:02.422',-2.400
'0:02.424',-2.315
'0:02.426',-2.300
'0:02.428',-2.290
'0:02.430',-2.270
'0:02.432',-2.280
'0:02.434',-2.320
'0:02.436',-2.250
'0:02.438',-2.295
'0:02.440',-2.295
'0:02.442',-2.305
'0:02.444',-2.355
'0:02.446',-2.235
'0:02.448',-2.225
'0:02.450',-2.305
'0:02.452',-2.255
'0:02.454',-2.325
'0:02.456',-2.230
'0:02.458',-2.285
'0:02.460',-2.300
'0:02.462',-2.320
'0:02.464',-2.220
'0:02.466',-2.205
'0:02.468',-2.160
'0:02.470',-2.185
'0:02.472',-2.260
'0:02.474',-2.250
'0:02.476',-2.185
'0:02.478',-2.230
'0:02.480',-2.185
'0:02.482',-2.130
'0:02.484',-2.165
'0:02.486',-2.145
'0:02.488',-2.105
'0:02.490',-2.205
'0:02.492',-2.190
'0:02.494',-2.130
'0:02.496',-2.060
'0:02.498',-2.110
'0:02.500',-2.120
'0:02.502',-2.090
'0:02.504',-2.100
'0:02.506',-2.110
'0:02.508',-2.120
'0:02.510',-2.075
'0:02.512',-2.055
'0:02.514',-2.060
'0:02.516',-2.030
'0:02.518',-2.025
'0:02.520',-2.025
'0:02.522',-2.055
'0:02.524',-2.050
'0:02.526',-2.045
'0:02.528',-2.005
'0:02.530',-1.980
'0:02.532',-2.065
'0:02.534',-2.110
'0:02.536',-2.085
'0:02.538',-2.045
'0:02.540',-2.060
'0:02.542',-2.110
'0:02.544',-2.120
'0:02.546',-2.045
'0:02.548',-2.135
'0:02.550',-2.135
'0:02.552',-2.070
'0:02.554',-2.040
'0:02.556',-2.085
'0:02.558',-2.140
'0:02.560',-2.160
'0:02.562',-2.085
'0:02.564',-2.140
'0:02.566',-2.160
'0:02.568',-2.185
'0:02.570',-2.140
'0:02.572',-2.205
'0:02.574',-2.190
'0:02.576',-2.275
'0:02.578',-2.295
'0:02.580',-2.245
'0:02.582',-2.295
'0:02.584',-2.275
'0:02.586',-2.195
'0:02.588',-2.225
'0:02.590',-2.260
'0:02.592',-2.275
'0:02.594',-2.340
'0:02.596',-2.345
'0:02.598',-2.255
'0:02.600',-2.295
'0:02.602',-2.320
'0:02.604',-2.340
'0:02.606',-2.420
'0:02.608',-2.305
'0:02.610',-2.370
'0:02.612',-2.325
'0:02.614',-2.230
'0:02.616',-2.285
'0:02.618',-2.320
'0:02.620',-2.310
'0:02.622',-2.315
'0:02.624',-2.280
'0:02.626',-2.285
'0:02.628',-2.380
'0:02.630',-2.385
'0:02.632',-2.290
'0:02.634',-2.335
'0:02.636',-2.375
'0:02.638',-2.350
'0:02.640',-2.370
'0:02.642',-2.365
'0:02.644',-2.295
'0:02.646',-2.305
'0:02.648',-2.350
'0:02.650',-2.350
'0:02.652',-2.310
'0:02.654',-2.350
'0:02.656',-2.320
'0:02.658',-2.360
'0:02.660',-2.380
'0:02.662',-2.320
'0:02.664',-2.315
'0:02.666',-2.350
'0:02.668',-2.265
'0:02.670',-2.295
'0:02.672',-2.340
'0:02.674',-2.330
'0:02.676',-2.355
'0:02.678',-2.380
'0:02.680',-2.395
'0:02.682',-2.300
'0:02.684',-2.290
'0:02.686',-2.265
'0:02.688',-2.365
'0:02.690',-2.405
'0:02.692',-2.400
'0:02.694',-2.375
'0:02.696',-2.340
'0:02.698',-2.345
'0:02.700',-2.405
'0:02.702',-2.375
'0:02.704',-2.390
'0:02.706',-2.345
'0:02.708',-2.360
'0:02.710',-2.355
'0:02.712',-2.375
'0:02.714',-2.335
'0:02.716',-2.390
'0:02.718',-2.385
'0:02.720',-2.320
'0:02.722',-2.315
'0:02.724',-2.320
'0:02.726',-2.305
'0:02.728',-2.330
'0:02.730',-2.355
'0:02.732',-2.360
'0:02.734',-2.360
'0:02.736',-2.345
'0:02.738',-2.390
'0:02.740',-2.385
'0:02.742',-2.370
'0:02.744',-2.375
'0:02.746',-2.300
'0:02.748',-2.295
'0:02.750',-2.325
'0:02.752',-2.315
'0:02.754',-2.320
'0:02.756',-2.310
'0:02.758',-2.290
'0:02.760',-2.260
'0:02.762',-2.225
'0:02.764',-2.260
'0:02.766',-2.295
'0:02.768',-2.320
'0:02.770',-2.290
'0:02.772',-2.270
'0:02.774',-2.325
'0:02.776',-2.345
'0:02.778',-2.320
'0:02.780',-2.255
'0:02.782',-2.300
'0:02.784',-2.290
'0:02.786',-2.350
'0:02.788',-2.320
'0:02.790',-2.420
'0:02.792',-2.395
'0:02.794',-2.390
'0:02.796',-2.365
'0:02.798',-2.410
'0:02.800',-2.350
'0:02.802',-2.350
'0:02.804',-2.450
'0:02.806',-2.405
'0:02.808',-2.365
'0:02.810',-2.340
'0:02.812',-2.430
'0:02.814',-2.400
'0:02.816',-2.460
'0:02.818',-2.470
'0:02.820',-2.405
'0:02.822',-2.390
'0:02.824',-2.445
'0:02.826',-2.470
'0:02.828',-2.405
'0:02.830',-2.415
'0:02.832',-2.480
'0:02.834',-2.410
'0:02.836',-2.380
'0:02.838',-2.460
'0:02.840',-2.455
'0:02.842',-2.420
'0:02.844',-2.395
'0:02.846',-2.370
'0:02.848',-2.420
'0:02.850',-2.380
'0:02.852',-2.420
'0:02.854',-2.450
'0:02.856',-2.460
'0:02.858',-2.440
'0:02.860',-2.520
'0:02.862',-2.445
'0:02.864',-2.390
'0:02.866',-2.265
'0:02.868',-2.155
'0:02.870',-2.110
'0:02.872',-2.055
'0:02.874',-2.125
'0:02.876',-2.055
'0:02.878',-2.120
'0:02.880',-2.120
'0:02.882',-2.175
'0:02.884',-2.195
'0:02.886',-2.315
'0:02.888',-2.335
'0:02.890',-2.350
'0:02.892',-2.475
'0:02.894',-2.585
'0:02.896',-2.575
'0:02.898',-2.665
'0:02.900',-2.645
'0:02.902',-2.690
'0:02.904',-2.690
'0:02.906',-2.665
'0:02.908',-2.635
'0:02.910',-2.625
'0:02.912',-2.710
'0:02.914',-2.625
'0:02.916',-2.615
'0:02.918',-2.385
'0:02.920',-2.550
'0:02.922',-2.600
'0:02.924',-2.485
'0:02.926',-2.435
'0:02.928',-2.440
'0:02.930',-2.445
'0:02.932',-2.420
'0:02.934',-2.420
'0:02.936',-2.490
'0:02.938',-2.480
'0:02.940',-2.490
'0:02.942',-2.465
'0:02.944',-2.430
'0:02.946',-2.505
'0:02.948',-2.415
'0:02.950',-2.425
'0:02.952',-2.430
'0:02.954',-2.420
'0:02.956',-2.385
'0:02.958',-2.465
'0:02.960',-2.450
'0:02.962',-2.480
'0:02.964',-2.380
'0:02.966',-2.350
'0:02.968',-2.470
'0:02.970',-2.445
'0:02.972',-2.410
'0:02.974',-2.430
'0:02.976',-2.420
'0:02.978',-2.345
'0:02.980',-2.375
'0:02.982',-2.410
'0:02.984',-2.530
'0:02.986',-2.435
'0:02.988',-2.305
'0:02.990',-2.355
'0:02.992',-2.350
'0:02.994',-2.370
'0:02.996',-2.350
'0:02.998',-2.375
'0:03.000',-2.395
'0:03.002',-2.435
'0:03.004',-2.365
'0:03.006',-2.365
'0:03.008',-2.435
'0:03.010',-2.320
'0:03.012',-2.265
'0:03.014',-2.265
'0:03.016',-2.410
'0:03.018',-2.330
'0:03.020',-2.350
'0:03.022',-2.325
'0:03.024',-2.285
'0:03.026',-2.325
'0:03.028',-2.335
'0:03.030',-2.260
'0:03.032',-2.280
'0:03.034',-2.245
'0:03.036',-2.225
'0:03.038',-2.270
'0:03.040',-2.245
'0:03.042',-2.245
'0:03.044',-2.300
'0:03.046',-2.170
'0:03.048',-2.100
'0:03.050',-2.145
'0:03.052',-2.165
'0:03.054',-2.135
'0:03.056',-2.175
'0:03.058',-2.125
'0:03.060',-2.095
'0:03.062',-2.160
'0:03.064',-2.130
'0:03.066',-2.105
'0:03.068',-2.135
'0:03.070',-2.190
'0:03.072',-2.200
'0:03.074',-2.170
'0:03.076',-2.185
'0:03.078',-2.185
'0:03.080',-2.145
'0:03.082',-2.140
'0:03.084',-2.135
'0:03.086',-2.100
'0:03.088',-2.135
'0:03.090',-2.215
'0:03.092',-2.250
'0:03.094',-2.200
'0:03.096',-2.240
'0:03.098',-2.270
'0:03.100',-2.260
'0:03.102',-2.310
'0:03.104',-2.335
'0:03.106',-2.285
'0:03.108',-2.230
'0:03.110',-2.275
'0:03.112',-2.305
'0:03.114',-2.305
'0:03.116',-2.350
'0:03.118',-2.365
'0:03.120',-2.380
'0:03.122',-2.425
'0:03.124',-2.450
'0:03.126',-2.350
'0:03.128',-2.335
'0:03.130',-2.270
'0:03.132',-2.445
'0:03.134',-2.465
'0:03.136',-2.345
'0:03.138',-2.445
'0:03.140',-2.425
'0:03.142',-2.370
'0:03.144',-2.410
'0:03.146',-2.395
'0:03.148',-2.450
'0:03.150',-2.485
'0:03.152',-2.440
'0:03.154',-2.485
'0:03.156',-2.455
'0:03.158',-2.475
'0:03.160',-2.495
'0:03.162',-2.450
'0:03.164',-2.490
'0:03.166',-2.480
'0:03.168',-2.385
'0:03.170',-2.335
'0:03.172',-2.390
'0:03.174',-2.425
'0:03.176',-2.415
'0:03.178',-2.405
'0:03.180',-2.425
'0:03.182',-2.455
'0:03.184',-2.535
'0:03.186',-2.505
'0:03.188',-2.360
'0:03.190',-2.425
'0:03.192',-2.430
'0:03.194',-2.420
'0:03.196',-2.445
'0:03.198',-2.510
'0:03.200',-2.510
'0:03.202',-2.365
'0:03.204',-2.425
'0:03.206',-2.475
'0:03.208',-2.400
'0:03.210',-2.490
'0:03.212',-2.530
'0:03.214',-2.430
'0:03.216',-2.455
'0:03.218',-2.465
'0:03.220',-2.455
'0:03.222',-2.460
'0:03.224',-2.415
'0:03.226',-2.410
'0:03.228',-2.455
'0:03.230',-2.540
'0:03.232',-2.565
'0:03.234',-2.400
'0:03.236',-2.390
'0:03.238',-2.410
'0:03.240',-2.485
'0:03.242',-2.520
'0:03.244',-2.435
'0:03.246',-2.440
'0:03.248',-2.475
'0:03.250',-2.535
'0:03.252',-2.465
'0:03.254',-2.400
'0:03.256',-2.465
'0:03.258',-2.525
'0:03.260',-2.510
'0:03.262',-2.505
'0:03.264',-2.475
'0:03.266',-2.460
'0:03.268',-2.520
'0:03.270',-2.495
'0:03.272',-2.455
'0:03.274',-2.420
'0:03.276',-2.455
'0:03.278',-2.440
'0:03.280',-2.445
'0:03.282',-2.480
'0:03.284',-2.480
'0:03.286',-2.445
'0:03.288',-2.475
'0:03.290',-2.515
'0:03.292',-2.490
'0:03.294',-2.485
'0:03.296',-2.620
'0:03.298',-2.565
'0:03.300',-2.510
'0:03.302',-2.550
'0:03.304',-2.430
'0:03.306',-2.385
'0:03.308',-2.420
'0:03.310',-2.480
'0:03.312',-2.470
'0:03.314',-2.450
'0:03.316',-2.450
'0:03.318',-2.425
'0:03.320',-2.455
'0:03.322',-2.500
'0:03.324',-2.470
'0:03.326',-2.500
'0:03.328',-2.430
'0:03.330',-2.500
'0:03.332',-2.535
'0:03.334',-2.550
'0:03.336',-2.315
'0:03.338',-2.335
'0:03.340',-2.365
'0:03.342',-2.430
'0:03.344',-2.420
'0:03.346',-2.375
'0:03.348',-2.335
'0:03.350',-2.365
'0:03.352',-2.405
'0:03.354',-2.380
'0:03.356',-2.510
'0:03.358',-2.465
'0:03.360',-2.485
'0:03.362',-2.410
'0:03.364',-2.315
'0:03.366',-2.380
'0:03.368',-2.375
'0:03.370',-2.430
'0:03.372',-2.480
'0:03.374',-2.470
'0:03.376',-2.495
'0:03.378',-2.500
'0:03.380',-2.485
'0:03.382',-2.565
'0:03.384',-2.600
'0:03.386',-2.455
'0:03.388',-2.510
'0:03.390',-2.555
'0:03.392',-2.555
'0:03.394',-2.485
'0:03.396',-2.440
'0:03.398',-2.580
'0:03.400',-2.545
'0:03.402',-2.570
'0:03.404',-2.525
'0:03.406',-2.555
'0:03.408',-2.520
'0:03.410',-2.510
'0:03.412',-2.515
'0:03.414',-2.535
'0:03.416',-2.565
'0:03.418',-2.540
'0:03.420',-2.570
'0:03.422',-2.630
'0:03.424',-2.525
'0:03.426',-2.520
'0:03.428',-2.515
'0:03.430',-2.480
'0:03.432',-2.540
'0:03.434',-2.515
'0:03.436',-2.580
'0:03.438',-2.695
'0:03.440',-2.550
'0:03.442',-2.545
'0:03.444',-2.480
'0:03.446',-2.490
'0:03.448',-2.365
'0:03.450',-2.240
'0:03.452',-2.210
'0:03.454',-2.170
'0:03.456',-2.145
'0:03.458',-2.130
'0:03.460',-2.165
'0:03.462',-2.105
'0:03.464',-2.135
'0:03.466',-2.230
'0:03.468',-2.400
'0:03.470',-2.440
'0:03.472',-2.540
'0:03.474',-2.605
'0:03.476',-2.700
'0:03.478',-2.700
'0:03.480',-2.740
'0:03.482',-2.775
'0:03.484',-2.775
'0:03.486',-2.810
'0:03.488',-2.800
'0:03.490',-2.800
'0:03.492',-2.780
'0:03.494',-2.655
'0:03.496',-2.755
'0:03.498',-2.785
'0:03.500',-2.630
'0:03.502',-2.610
'0:03.504',-2.575
'0:03.506',-2.595
'0:03.508',-2.560
'0:03.510',-2.525
'0:03.512',-2.580
'0:03.514',-2.680
'0:03.516',-2.685
'0:03.518',-2.595
'0:03.520',-2.560
'0:03.522',-2.520
'0:03.524',-2.515
'0:03.526',-2.595
'0:03.528',-2.525
'0:03.530',-2.585
'0:03.532',-2.530
'0:03.534',-2.525
'0:03.536',-2.575
'0:03.538',-2.465
'0:03.540',-2.480
'0:03.542',-2.515
'0:03.544',-2.550
'0:03.546',-2.595
'0:03.548',-2.515
'0:03.550',-2.510
'0:03.552',-2.520
'0:03.554',-2.530
'0:03.556',-2.560
'0:03.558',-2.530
'0:03.560',-2.480
'0:03.562',-2.565
'0:03.564',-2.525
'0:03.566',-2.485
'0:03.568',-2.470
'0:03.570',-2.565
'0:03.572',-2.560
'0:03.574',-2.610
'0:03.576',-2.445
'0:03.578',-2.520
'0:03.580',-2.430
'0:03.582',-2.535
'0:03.584',-2.570
'0:03.586',-2.410
'0:03.588',-2.440
'0:03.590',-2.465
'0:03.592',-2.425
'0:03.594',-2.490
'0:03.596',-2.490
'0:03.598',-2.360
'0:03.600',-2.430
'0:03.602',-2.430
'0:03.604',-2.415
'0:03.606',-2.475
'0:03.608',-2.415
'0:03.610',-2.400
'0:03.612',-2.455
'0:03.614',-2.410
'0:03.616',-2.375
'0:03.618',-2.395
'0:03.620',-2.320
'0:03.622',-2.280
'0:03.624',-2.245
'0:03.626',-2.260
'0:03.628',-2.270
'0:03.630',-2.320
'0:03.632',-2.310
'0:03.634',-2.335
'0:03.636',-2.290
'0:03.638',-2.235
'0:03.640',-2.275
'0:03.642',-2.265
'0:03.644',-2.205
'0:03.646',-2.305
'0:03.648',-2.325
'0:03.650',-2.270
'0:03.652',-2.205
'0:03.654',-2.240
'0:03.656',-2.215
'0:03.658',-2.275
'0:03.660',-2.195
'0:03.662',-2.265
'0:03.664',-2.275
'0:03.666',-2.285
'0:03.668',-2.270
'0:03.670',-2.185
'0:03.672',-2.200
'0:03.674',-2.260
'0:03.676',-2.290
'0:03.678',-2.455
'0:03.680',-2.360
'0:03.682',-2.295
'0:03.684',-2.270
'0:03.686',-2.330
'0:03.688',-2.350
'0:03.690',-2.310
'0:03.692',-2.390
'0:03.694',-2.395
'0:03.696',-2.430
'0:03.698',-2.400
'0:03.700',-2.415
'0:03.702',-2.470
'0:03.704',-2.480
'0:03.706',-2.525
'0:03.708',-2.490
'0:03.710',-2.500
'0:03.712',-2.520
'0:03.714',-2.475
'0:03.716',-2.465
'0:03.718',-2.470
'0:03.720',-2.515
'0:03.722',-2.480
'0:03.724',-2.500
'0:03.726',-2.515
'0:03.728',-2.515
'0:03.730',-2.540
'0:03.732',-2.585
'0:03.734',-2.585
'0:03.736',-2.535
'0:03.738',-2.590
'0:03.740',-2.490
'0:03.742',-2.500
'0:03.744',-2.610
'0:03.746',-2.610
'0:03.748',-2.455
'0:03.750',-2.455
'0:03.752',-2.500
'0:03.754',-2.535
'0:03.756',-2.555
'0:03.758',-2.565
'0:03.760',-2.550
'0:03.762',-2.620
'0:03.764',-2.485
'0:03.766',-2.490
'0:03.768',-2.585
'0:03.770',-2.545
'0:03.772',-2.545
'0:03.774',-2.495
'0:03.776',-2.525
'0:03.778',-2.495
'0:03.780',-2.525
'0:03.782',-2.525
'0:03.784',-2.475
'0:03.786',-2.575
'0:03.788',-2.580
'0:03.790',-2.530
'0:03.792',-2.530
'0:03.794',-2.560
'0:03.796',-2.575
'0:03.798',-2.555
'0:03.800',-2.670
'0:03.802',-2.725
'0:03.804',-2.510
'0:03.806',-2.480
'0:03.808',-2.510
'0:03.810',-2.550
'0:03.812',-2.605
'0:03.814',-2.550
'0:03.816',-2.535
'0:03.818',-2.515
'0:03.820',-2.545
'0:03.822',-2.570
'0:03.824',-2.495
'0:03.826',-2.585
'0:03.828',-2.625
'0:03.830',-2.480
'0:03.832',-2.685
'0:03.834',-2.475
'0:03.836',-2.520
'0:03.838',-2.545
'0:03.840',-2.495
'0:03.842',-2.500
'0:03.844',-2.610
'0:03.846',-2.625
'0:03.848',-2.650
'0:03.850',-2.610
'0:03.852',-2.505
'0:03.854',-2.600
'0:03.856',-2.605
'0:03.858',-2.570
'0:03.860',-2.595
'0:03.862',-2.615
'0:03.864',-2.555
'0:03.866',-2.600
'0:03.868',-2.610
'0:03.870',-2.585
'0:03.872',-2.605
'0:03.874',-2.620
'0:03.876',-2.565
'0:03.878',-2.555
'0:03.880',-2.495
'0:03.882',-2.470
'0:03.884',-2.555
'0:03.886',-2.645
'0:03.888',-2.700
'0:03.890',-2.645
'0:03.892',-2.480
'0:03.894',-2.565
'0:03.896',-2.665
'0:03.898',-2.600
'0:03.900',-2.605
'0:03.902',-2.585
'0:03.904',-2.590
'0:03.906',-2.580
'0:03.908',-2.545
'0:03.910',-2.565
'0:03.912',-2.610
'0:03.914',-2.595
'0:03.916',-2.585
'0:03.918',-2.540
'0:03.920',-2.545
'0:03.922',-2.515
'0:03.924',-2.540
'0:03.926',-2.535
'0:03.928',-2.515
'0:03.930',-2.630
'0:03.932',-2.575
'0:03.934',-2.620
'0:03.936',-2.445
'0:03.938',-2.455
'0:03.940',-2.570
'0:03.942',-2.450
'0:03.944',-2.470
'0:03.946',-2.470
'0:03.948',-2.540
'0:03.950',-2.470
'0:03.952',-2.455
'0:03.954',-2.460
'0:03.956',-2.480
'0:03.958',-2.455
'0:03.960',-2.525
'0:03.962',-2.580
'0:03.964',-2.475
'0:03.966',-2.495
'0:03.968',-2.555
'0:03.970',-2.465
'0:03.972',-2.520
'0:03.974',-2.585
'0:03.976',-2.555
'0:03.978',-2.620
'0:03.980',-2.635
'0:03.982',-2.660
'0:03.984',-2.640
'0:03.986',-2.615
'0:03.988',-2.610
'0:03.990',-2.560
'0:03.992',-2.595
'0:03.994',-2.555
'0:03.996',-2.605
'0:03.998',-2.640
'0:04.000',-2.625
'0:04.002',-2.625
'0:04.004',-2.635
'0:04.006',-2.675
'0:04.008',-2.690
'0:04.010',-2.705
'0:04.012',-2.665
'0:04.014',-2.580
'0:04.016',-2.560
'0:04.018',-2.625
'0:04.020',-2.640
'0:04.022',-2.620
'0:04.024',-2.640
'0:04.026',-2.610
'0:04.028',-2.640
'0:04.030',-2.700
'0:04.032',-2.660
'0:04.034',-2.630
'0:04.036',-2.630
'0:04.038',-2.730
'0:04.040',-2.705
'0:04.042',-2.635
'0:04.044',-2.670
'0:04.046',-2.605
'0:04.048',-2.495
'0:04.050',-2.310
'0:04.052',-2.295
'0:04.054',-2.260
'0:04.056',-2.185
'0:04.058',-2.155
'0:04.060',-2.205
'0:04.062',-2.245
'0:04.064',-2.300
'0:04.066',-2.350
'0:04.068',-2.405
'0:04.070',-2.525
'0:04.072',-2.615
'0:04.074',-2.770
'0:04.076',-2.835
'0:04.078',-2.890
'0:04.080',-2.835
'0:04.082',-2.855
'0:04.084',-2.890
'0:04.086',-2.955
'0:04.088',-2.975
'0:04.090',-2.940
'0:04.092',-2.890
'0:04.094',-2.920
'0:04.096',-2.910
'0:04.098',-2.835
'0:04.100',-2.840
'0:04.102',-2.740
'0:04.104',-2.700
'0:04.106',-2.710
'0:04.108',-2.730
'0:04.110',-2.745
'0:04.112',-2.635
'0:04.114',-2.630
'0:04.116',-2.690
'0:04.118',-2.645
'0:04.120',-2.685
'0:04.122',-2.685
'0:04.124',-2.725
'0:04.126',-2.690
'0:04.128',-2.675
'0:04.130',-2.660
'0:04.132',-2.655
'0:04.134',-2.675
'0:04.136',-2.705
'0:04.138',-2.715
'0:04.140',-2.725
'0:04.142',-2.680
'0:04.144',-2.675
'0:04.146',-2.730
'0:04.148',-2.645
'0:04.150',-2.615
'0:04.152',-2.625
'0:04.154',-2.655
'0:04.156',-2.625
'0:04.158',-2.630
'0:04.160',-2.645
'0:04.162',-2.700
'0:04.164',-2.665
'0:04.166',-2.595
'0:04.168',-2.540
'0:04.170',-2.610
'0:04.172',-2.630
'0:04.174',-2.600
'0:04.176',-2.700
'0:04.178',-2.630
'0:04.180',-2.585
'0:04.182',-2.630
'0:04.184',-2.600
'0:04.186',-2.575
'0:04.188',-2.590
'0:04.190',-2.675
'0:04.192',-2.545
'0:04.194',-2.605
'0:04.196',-2.690
'0:04.198',-2.535
'0:04.200',-2.515
'0:04.202',-2.535
'0:04.204',-2.500
'0:04.206',-2.495
'0:04.208',-2.545
'0:04.210',-2.535
'0:04.212',-2.505
'0:04.214',-2.445
'0:04.216',-2.515
'0:04.218',-2.505
'0:04.220',-2.440
'0:04.222',-2.430
'0:04.224',-2.375
'0:04.226',-2.425
'0:04.228',-2.425
'0:04.230',-2.385
'0:04.232',-2.400
'0:04.234',-2.415
'0:04.236',-2.360
'0:04.238',-2.355
'0:04.240',-2.455
'0:04.242',-2.410
'0:04.244',-2.355
'0:04.246',-2.320
'0:04.248',-2.305
'0:04.250',-2.300
'0:04.252',-2.320
'0:04.254',-2.340
'0:04.256',-2.380
'0:04.258',-2.290
'0:04.260',-2.325
'0:04.262',-2.330
'0:04.264',-2.365
'0:04.266',-2.380
'0:04.268',-2.395
'0:04.270',-2.480
'0:04.272',-2.425
'0:04.274',-2.325
'0:04.276',-2.340
'0:04.278',-2.355
'0:04.280',-2.390
'0:04.282',-2.380
'0:04.284',-2.380
'0:04.286',-2.385
'0:04.288',-2.400
'0:04.290',-2.445
'0:04.292',-2.430
'0:04.294',-2.510
'0:04.296',-2.545
'0:04.298',-2.540
'0:04.300',-2.530
'0:04.302',-2.530
'0:04.304',-2.605
'0:04.306',-2.600
'0:04.308',-2.635
'0:04.310',-2.605
'0:04.312',-2.610
'0:04.314',-2.690
'0:04.316',-2.585
'0:04.318',-2.630
'0:04.320',-2.595
'0:04.322',-2.705
'0:04.324',-2.670
'0:04.326',-2.630
'0:04.328',-2.700
'0:04.330',-2.720
'0:04.332',-2.620
'0:04.334',-2.675
'0:04.336',-2.665
'0:04.338',-2.600
'0:04.340',-2.550
'0:04.342',-2.600
'0:04.344',-2.620
'0:04.346',-2.705
'0:04.348',-2.630
'0:04.350',-2.630
'0:04.352',-2.655
'0:04.354',-2.650
'0:04.356',-2.695
'0:04.358',-2.650
'0:04.360',-2.685
'0:04.362',-2.680
'0:04.364',-2.660
'0:04.366',-2.680
'0:04.368',-2.675
'0:04.370',-2.650
'0:04.372',-2.620
'0:04.374',-2.610
'0:04.376',-2.710
'0:04.378',-2.720
'0:04.380',-2.695
'0:04.382',-2.615
'0:04.384',-2.655
'0:04.386',-2.660
'0:04.388',-2.705
'0:04.390',-2.725
'0:04.392',-2.640
'0:04.394',-2.685
'0:04.396',-2.625
'0:04.398',-2.680
'0:04.400',-2.780
'0:04.402',-2.755
'0:04.404',-2.635
'0:04.406',-2.710
'0:04.408',-2.710
'0:04.410',-2.620
'0:04.412',-2.680
'0:04.414',-2.740
'0:04.416',-2.660
'0:04.418',-2.685
'0:04.420',-2.660
'0:04.422',-2.640
'0:04.424',-2.660
'0:04.426',-2.650
'0:04.428',-2.665
'0:04.430',-2.705
'0:04.432',-2.705
'0:04.434',-2.690
'0:04.436',-2.645
'0:04.438',-2.650
'0:04.440',-2.675
'0:04.442',-2.680
'0:04.444',-2.675
'0:04.446',-2.755
'0:04.448',-2.785
'0:04.450',-2.700
'0:04.452',-2.695
'0:04.454',-2.670
'0:04.456',-2.705
'0:04.458',-2.660
'0:04.460',-2.600
'0:04.462',-2.675
'0:04.464',-2.790
'0:04.466',-2.735
'0:04.468',-2.705
'0:04.470',-2.685
'0:04.472',-2.740
'0:04.474',-2.735
'0:04.476',-2.630
'0:04.478',-2.765
'0:04.480',-2.685
'0:04.482',-2.645
'0:04.484',-2.700
'0:04.486',-2.695
'0:04.488',-2.745
'0:04.490',-2.650
'0:04.492',-2.600
'0:04.494',-2.680
'0:04.496',-2.670
'0:04.498',-2.680
'0:04.500',-2.700
'0:04.502',-2.675
'0:04.504',-2.660
'0:04.506',-2.695
'0:04.508',-2.655
'0:04.510',-2.715
'0:04.512',-2.680
'0:04.514',-2.630
'0:04.516',-2.650
'0:04.518',-2.725
'0:04.520',-2.730
'0:04.522',-2.665
'0:04.524',-2.675
'0:04.526',-2.630
'0:04.528',-2.670
'0:04.530',-2.615
'0:04.532',-2.540
'0:04.534',-2.610
'0:04.536',-2.555
'0:04.538',-2.490
'0:04.540',-2.585
'0:04.542',-2.580
'0:04.544',-2.595
'0:04.546',-2.625
'0:04.548',-2.625
'0:04.550',-2.610
'0:04.552',-2.535
'0:04.554',-2.580
'0:04.556',-2.645
'0:04.558',-2.655
'0:04.560',-2.660
'0:04.562',-2.740
'0:04.564',-2.740
'0:04.566',-2.675
'0:04.568',-2.655
'0:04.570',-2.645
'0:04.572',-2.675
'0:04.574',-2.665
'0:04.576',-2.720
'0:04.578',-2.745
'0:04.580',-2.735
'0:04.582',-2.710
'0:04.584',-2.740
'0:04.586',-2.695
'0:04.588',-2.700
'0:04.590',-2.750
'0:04.592',-2.770
'0:04.594',-2.720
'0:04.596',-2.740
'0:04.598',-2.725
'0:04.600',-2.730
'0:04.602',-2.765
'0:04.604',-2.745
'0:04.606',-2.600
'0:04.608',-2.775
'0:04.610',-2.825
'0:04.612',-2.750
'0:04.614',-2.745
'0:04.616',-2.805
'0:04.618',-2.755
'0:04.620',-2.685
'0:04.622',-2.635
'0:04.624',-2.645
'0:04.626',-2.525
'0:04.628',-2.485
'0:04.630',-2.425
'0:04.632',-2.325
'0:04.634',-2.290
'0:04.636',-2.285
'0:04.638',-2.310
'0:04.640',-2.365
'0:04.642',-2.360
'0:04.644',-2.435
'0:04.646',-2.495
'0:04.648',-2.600
'0:04.650',-2.655
'0:04.652',-2.885
'0:04.654',-2.960
'0:04.656',-2.930
'0:04.658',-2.935
'0:04.660',-2.970
'0:04.662',-3.035
'0:04.664',-3.060
'0:04.666',-3.010
'0:04.668',-3.000
'0:04.670',-3.000
'0:04.672',-2.980
'0:04.674',-2.980
'0:04.676',-2.875
'0:04.678',-2.810
'0:04.680',-2.780
'0:04.682',-2.800
'0:04.684',-2.800
'0:04.686',-2.770
'0:04.688',-2.720
'0:04.690',-2.795
'0:04.692',-2.720
'0:04.694',-2.715
'0:04.696',-2.815
'0:04.698',-2.775
'0:04.700',-2.755
'0:04.702',-2.700
'0:04.704',-2.675
'0:04.706',-2.690
'0:04.708',-2.755
'0:04.710',-2.820
'0:04.712',-2.725
'0:04.714',-2.740
'0:04.716',-2.775
'0:04.718',-2.815
'0:04.720',-2.735
'0:04.722',-2.705
'0:04.724',-2.735
'0:04.726',-2.725
'0:04.728',-2.715
'0:04.730',-2.715
'0:04.732',-2.695
'0:04.734',-2.715
'0:04.736',-2.640
'0:04.738',-2.675
'0:04.740',-2.780
'0:04.742',-2.775
'0:04.744',-2.680
'0:04.746',-2.575
'0:04.748',-2.665
'0:04.750',-2.705
'0:04.752',-2.665
'0:04.754',-2.675
'0:04.756',-2.680
'0:04.758',-2.715
'0:04.760',-2.685
'0:04.762',-2.645
'0:04.764',-2.660
'0:04.766',-2.590
'0:04.768',-2.600
'0:04.770',-2.585
'0:04.772',-2.690
'0:04.774',-2.640
'0:04.776',-2.615
'0:04.778',-2.595
'0:04.780',-2.575
'0:04.782',-2.645
'0:04.784',-2.595
'0:04.786',-2.545
'0:04.788',-2.575
'0:04.790',-2.525
'0:04.792',-2.500
'0:04.794',-2.510
'0:04.796',-2.610
'0:04.798',-2.475
'0:04.800',-2.455
'0:04.802',-2.440
'0:04.804',-2.455
'0:04.806',-2.525
'0:04.808',-2.445
'0:04.810',-2.410
'0:04.812',-2.445
'0:04.814',-2.425
'0:04.816',-2.445
'0:04.818',-2.420
'0:04.820',-2.420
'0:04.822',-2.370
'0:04.824',-2.330
'0:04.826',-2.360
'0:04.828',-2.430
'0:04.830',-2.385
'0:04.832',-2.430
'0:04.834',-2.395
'0:04.836',-2.445
'0:04.838',-2.350
'0:04.840',-2.355
'0:04.842',-2.410
'0:04.844',-2.410
'0:04.846',-2.370
'0:04.848',-2.350
'0:04.850',-2.385
'0:04.852',-2.445
'0:04.854',-2.595
'0:04.856',-2.520
'0:04.858',-2.435
'0:04.860',-2.455
'0:04.862',-2.455
'0:04.864',-2.470
'0:04.866',-2.530
'0:04.868',-2.525
'0:04.870',-2.525
'0:04.872',-2.580
'0:04.874',-2.555
'0:04.876',-2.565
'0:04.878',-2.590
'0:04.880',-2.565
'0:04.882',-2.655
'0:04.884',-2.655
'0:04.886',-2.620
'0:04.888',-2.670
'0:04.890',-2.565
'0:04.892',-2.605
'0:04.894',-2.675
'0:04.896',-2.660
'0:04.898',-2.630
'0:04.900',-2.680
'0:04.902',-2.705
'0:04.904',-2.640
'0:04.906',-2.675
'0:04.908',-2.695
'0:04.910',-2.635
'0:04.912',-2.645
'0:04.914',-2.635
'0:04.916',-2.725
'0:04.918',-2.685
'0:04.920',-2.665
'0:04.922',-2.670
'0:04.924',-2.760
'0:04.926',-2.715
'0:04.928',-2.620
'0:04.930',-2.595
'0:04.932',-2.675
'0:04.934',-2.680
'0:04.936',-2.675
'0:04.938',-2.660
'0:04.940',-2.625
'0:04.942',-2.655
'0:04.944',-2.685
'0:04.946',-2.660
'0:04.948',-2.660
'0:04.950',-2.705
'0:04.952',-2.710
'0:04.954',-2.640
'0:04.956',-2.640
'0:04.958',-2.635
'0:04.960',-2.640
'0:04.962',-2.670
'0:04.964',-2.670
'0:04.966',-2.695
'0:04.968',-2.695
'0:04.970',-2.675
'0:04.972',-2.625
'0:04.974',-2.635
'0:04.976',-2.645
'0:04.978',-2.670
'0:04.980',-2.725
'0:04.982',-2.705
'0:04.984',-2.685
'0:04.986',-2.600
'0:04.988',-2.695
'0:04.990',-2.660
'0:04.992',-2.610
'0:04.994',-2.690
'0:04.996',-2.720
'0:04.998',-2.640
'0:05.000',-2.585
'0:05.002',-2.655
'0:05.004',-2.710
'0:05.006',-2.650
'0:05.008',-2.665
'0:05.010',-2.700
'0:05.012',-2.675
'0:05.014',-2.640
'0:05.016',-2.685
'0:05.018',-2.640
'0:05.020',-2.645
'0:05.022',-2.680
'0:05.024',-2.640
'0:05.026',-2.715
'0:05.028',-2.745
'0:05.030',-2.655
'0:05.032',-2.650
'0:05.034',-2.660
'0:05.036',-2.710
'0:05.038',-2.705
'0:05.040',-2.650
'0:05.042',-2.700
'0:05.044',-2.685
'0:05.046',-2.610
'0:05.048',-2.680
'0:05.050',-2.650
'0:05.052',-2.580
'0:05.054',-2.600
'0:05.056',-2.700
'0:05.058',-2.595
'0:05.060',-2.675
'0:05.062',-2.655
'0:05.064',-2.520
'0:05.066',-2.650
'0:05.068',-2.685
'0:05.070',-2.670
'0:05.072',-2.670
'0:05.074',-2.675
'0:05.076',-2.620
'0:05.078',-2.580
'0:05.080',-2.605
'0:05.082',-2.605
'0:05.084',-2.560
'0:05.086',-2.565
'0:05.088',-2.560
'0:05.090',-2.635
'0:05.092',-2.580
'0:05.094',-2.565
'0:05.096',-2.580
'0:05.098',-2.545
'0:05.100',-2.585
'0:05.102',-2.605
'0:05.104',-2.590
'0:05.106',-2.610
'0:05.108',-2.565
'0:05.110',-2.580
'0:05.112',-2.560
'0:05.114',-2.635
'0:05.116',-2.665
'0:05.118',-2.680
'0:05.120',-2.665
'0:05.122',-2.610
'0:05.124',-2.655
'0:05.126',-2.625
'0:05.128',-2.665
'0:05.130',-2.645
'0:05.132',-2.665
'0:05.134',-2.700
'0:05.136',-2.635
'0:05.138',-2.730
'0:05.140',-2.710
'0:05.142',-2.665
'0:05.144',-2.660
'0:05.146',-2.660
'0:05.148',-2.655
'0:05.150',-2.665
'0:05.152',-2.680
'0:05.154',-2.700
'0:05.156',-2.700
'0:05.158',-2.675
'0:05.160',-2.710
'0:05.162',-2.635
'0:05.164',-2.645
'0:05.166',-2.635
'0:05.168',-2.750
'0:05.170',-2.805
'0:05.172',-2.600
'0:05.174',-2.600
'0:05.176',-2.695
'0:05.178',-2.700
'0:05.180',-2.695
'0:05.182',-2.660
'0:05.184',-2.640
'0:05.186',-2.585
'0:05.188',-2.620
'0:05.190',-2.570
'0:05.192',-2.435
'0:05.194',-2.420
'0:05.196',-2.305
'0:05.198',-2.285
'0:05.200',-2.300
'0:05.202',-2.325
'0:05.204',-2.350
'0:05.206',-2.380
'0:05.208',-2.425
'0:05.210',-2.490
'0:05.212',-2.705
'0:05.214',-2.610
'0:05.216',-2.675
'0:05.218',-2.805
'0:05.220',-2.885
'0:05.222',-2.825
'0:05.224',-2.850
'0:05.226',-2.870
'0:05.228',-2.935
'0:05.230',-2.950
'0:05.232',-2.925
'0:05.234',-2.895
'0:05.236',-2.855
'0:05.238',-2.835
'0:05.240',-2.795
'0:05.242',-2.770
'0:05.244',-2.755
'0:05.246',-2.775
'0:05.248',-2.760
'0:05.250',-2.685
'0:05.252',-2.650
'0:05.254',-2.565
'0:05.256',-2.650
'0:05.258',-2.705
'0:05.260',-2.680
'0:05.262',-2.655
'0:05.264',-2.675
'0:05.266',-2.715
'0:05.268',-2.700
'0:05.270',-2.675
'0:05.272',-2.635
'0:05.274',-2.650
'0:05.276',-2.670
'0:05.278',-2.640
'0:05.280',-2.615
'0:05.282',-2.635
'0:05.284',-2.770
'0:05.286',-2.640
'0:05.288',-2.620
'0:05.290',-2.670
'0:05.292',-2.685
'0:05.294',-2.565
'0:05.296',-2.615
'0:05.298',-2.595
'0:05.300',-2.575
'0:05.302',-2.590
'0:05.304',-2.680
'0:05.306',-2.635
'0:05.308',-2.605
'0:05.310',-2.650
'0:05.312',-2.630
'0:05.314',-2.590
'0:05.316',-2.595
'0:05.318',-2.595
'0:05.320',-2.610
'0:05.322',-2.600
'0:05.324',-2.590
'0:05.326',-2.540
'0:05.328',-2.535
'0:05.330',-2.540
'0:05.332',-2.570
'0:05.334',-2.620
'0:05.336',-2.530
'0:05.338',-2.510
'0:05.340',-2.505
'0:05.342',-2.575
'0:05.344',-2.525
'0:05.346',-2.565
'0:05.348',-2.530
'0:05.350',-2.505
'0:05.352',-2.490
'0:05.354',-2.490
'0:05.356',-2.510
'0:05.358',-2.450
'0:05.360',-2.430
'0:05.362',-2.480
'0:05.364',-2.460
'0:05.366',-2.400
'0:05.368',-2.370
'0:05.370',-2.400
'0:05.372',-2.380
'0:05.374',-2.395
'0:05.376',-2.480
'0:05.378',-2.405
'0:05.380',-2.315
'0:05.382',-2.410
'0:05.384',-2.335
'0:05.386',-2.300
'0:05.388',-2.340
'0:05.390',-2.360
'0:05.392',-2.345
'0:05.394',-2.320
'0:05.396',-2.385
'0:05.398',-2.405
'0:05.400',-2.330
'0:05.402',-2.340
'0:05.404',-2.270
'0:05.406',-2.330
'0:05.408',-2.345
'0:05.410',-2.410
'0:05.412',-2.365
'0:05.414',-2.370
'0:05.416',-2.405
'0:05.418',-2.290
'0:05.420',-2.325
'0:05.422',-2.355
'0:05.424',-2.430
'0:05.426',-2.500
'0:05.428',-2.505
'0:05.430',-2.590
'0:05.432',-2.625
'0:05.434',-2.435
'0:05.436',-2.410
'0:05.438',-2.480
'0:05.440',-2.465
'0:05.442',-2.465
'0:05.444',-2.500
'0:05.446',-2.605
'0:05.448',-2.565
'0:05.450',-2.610
'0:05.452',-2.610
'0:05.454',-2.650
'0:05.456',-2.510
'0:05.458',-2.585
'0:05.460',-2.580
'0:05.462',-2.530
'0:05.464',-2.560
'0:05.466',-2.625
'0:05.468',-2.580
'0:05.470',-2.620
'0:05.472',-2.525
'0:05.474',-2.530
'0:05.476',-2.615
'0:05.478',-2.605
'0:05.480',-2.595
'0:05.482',-2.655
'0:05.484',-2.635
'0:05.486',-2.610
'0:05.488',-2.615
'0:05.490',-2.635
'0:05.492',-2.655
'0:05.494',-2.670
'0:05.496',-2.665
'0:05.498',-2.585
'0:05.500',-2.645
'0:05.502',-2.640
'0:05.504',-2.650
'0:05.506',-2.650
'0:05.508',-2.625
'0:05.510',-2.690
'0:05.512',-2.680
'0:05.514',-2.620
'0:05.516',-2.515
'0:05.518',-2.510
'0:05.520',-2.640
'0:05.522',-2.695
'0:05.524',-2.660
'0:05.526',-2.585
'0:05.528',-2.565
'0:05.530',-2.565
'0:05.532',-2.585
'0:05.534',-2.595
'0:05.536',-2.560
'0:05.538',-2.565
'0:05.540',-2.570
'0:05.542',-2.610
'0:05.544',-2.615
'0:05.546',-2.575
'0:05.548',-2.580
'0:05.550',-2.635
'0:05.552',-2.600
'0:05.554',-2.615
'0:05.556',-2.565
'0:05.558',-2.595
'0:05.560',-2.650
'0:05.562',-2.630
'0:05.564',-2.595
'0:05.566',-2.625
'0:05.568',-2.640
'0:05.570',-2.630
'0:05.572',-2.615
'0:05.574',-2.670
'0:05.576',-2.600
'0:05.578',-2.610
'0:05.580',-2.605
'0:05.582',-2.620
'0:05.584',-2.670
'0:05.586',-2.645
'0:05.588',-2.625
'0:05.590',-2.585
'0:05.592',-2.580
'0:05.594',-2.580
'0:05.596',-2.570
'0:05.598',-2.670
'0:05.600',-2.620
'0:05.602',-2.660
'0:05.604',-2.520
'0:05.606',-2.540
'0:05.608',-2.650
'0:05.610',-2.605
'0:05.612',-2.600
'0:05.614',-2.595
'0:05.616',-2.525
'0:05.618',-2.560
'0:05.620',-2.555
'0:05.622',-2.575
'0:05.624',-2.565
'0:05.626',-2.540
'0:05.628',-2.565
'0:05.630',-2.550
'0:05.632',-2.565
'0:05.634',-2.500
'0:05.636',-2.510
'0:05.638',-2.530
'0:05.640',-2.555
'0:05.642',-2.560
'0:05.644',-2.530
'0:05.646',-2.540
'0:05.648',-2.510
'0:05.650',-2.500
'0:05.652',-2.555
'0:05.654',-2.645
'0:05.656',-2.590
'0:05.658',-2.620
'0:05.660',-2.600
'0:05.662',-2.575
'0:05.664',-2.550
'0:05.666',-2.590
'0:05.668',-2.575
'0:05.670',-2.590
'0:05.672',-2.640
'0:05.674',-2.665
'0:05.676',-2.645
'0:05.678',-2.630
'0:05.680',-2.585
'0:05.682',-2.635
'0:05.684',-2.620
'0:05.686',-2.610
'0:05.688',-2.715
'0:05.690',-2.715
'0:05.692',-2.685
'0:05.694',-2.605
'0:05.696',-2.620
'0:05.698',-2.635
'0:05.700',-2.635
'0:05.702',-2.690
'0:05.704',-2.655
'0:05.706',-2.650
'0:05.708',-2.605
'0:05.710',-2.610
'0:05.712',-2.635
'0:05.714',-2.620
'0:05.716',-2.615
'0:05.718',-2.585
'0:05.720',-2.650
'0:05.722',-2.690
'0:05.724',-2.665
'0:05.726',-2.690
'0:05.728',-2.790
'0:05.730',-2.760
'0:05.732',-2.625
'0:05.734',-2.610
'0:05.736',-2.645
'0:05.738',-2.570
'0:05.740',-2.510
'0:05.742',-2.405
'0:05.744',-2.380
'0:05.746',-2.325
'0:05.748',-2.260
'0:05.750',-2.305
'0:05.752',-2.395
'0:05.754',-2.485
'0:05.756',-2.370
'0:05.758',-2.370
'0:05.760',-2.555
'0:05.762',-2.650
'0:05.764',-2.665
'0:05.766',-2.795
'0:05.768',-2.825
'0:05.770',-2.810
'0:05.772',-2.835
'0:05.774',-2.845
'0:05.776',-2.900
'0:05.778',-2.945
'0:05.780',-2.900
'0:05.782',-3.020
'0:05.784',-2.890
'0:05.786',-2.815
'0:05.788',-2.810
'0:05.790',-2.760
'0:05.792',-2.760
'0:05.794',-2.765
'0:05.796',-2.735
'0:05.798',-2.670
'0:05.800',-2.640
'0:05.802',-2.665
'0:05.804',-2.710
'0:05.806',-2.650
'0:05.808',-2.680
'0:05.810',-2.675
'0:05.812',-2.635
'0:05.814',-2.670
'0:05.816',-2.640
'0:05.818',-2.660
'0:05.820',-2.670
'0:05.822',-2.655
'0:05.824',-2.660
'0:05.826',-2.630
'0:05.828',-2.605
'0:05.830',-2.620
'0:05.832',-2.645
'0:05.834',-2.640
'0:05.836',-2.650
'0:05.838',-2.655
'0:05.840',-2.600
'0:05.842',-2.570
'0:05.844',-2.590
'0:05.846',-2.580
'0:05.848',-2.545
'0:05.850',-2.640
'0:05.852',-2.595
'0:05.854',-2.645
'0:05.856',-2.605
'0:05.858',-2.590
'0:05.860',-2.575
'0:05.862',-2.565
'0:05.864',-2.630
'0:05.866',-2.560
'0:05.868',-2.515
'0:05.870',-2.530
'0:05.872',-2.630
'0:05.874',-2.650
'0:05.876',-2.535
'0:05.878',-2.515
'0:05.880',-2.590
'0:05.882',-2.540
'0:05.884',-2.495
'0:05.886',-2.575
'0:05.888',-2.505
'0:05.890',-2.495
'0:05.892',-2.510
'0:05.894',-2.500
'0:05.896',-2.455
'0:05.898',-2.475
'0:05.900',-2.575
'0:05.902',-2.450
'0:05.904',-2.445
'0:05.906',-2.445
'0:05.908',-2.435
'0:05.910',-2.400
'0:05.912',-2.395
'0:05.914',-2.420
'0:05.916',-2.390
'0:05.918',-2.365
'0:05.920',-2.370
'0:05.922',-2.370
'0:05.924',-2.350
'0:05.926',-2.360
'0:05.928',-2.315
'0:05.930',-2.370
'0:05.932',-2.355
'0:05.934',-2.380
'0:05.936',-2.355
'0:05.938',-2.305
'0:05.940',-2.325
'0:05.942',-2.355
'0:05.944',-2.330
'0:05.946',-2.270
'0:05.948',-2.295
'0:05.950',-2.320
'0:05.952',-2.335
'0:05.954',-2.310
'0:05.956',-2.385
'0:05.958',-2.340
'0:05.960',-2.340
'0:05.962',-2.395
'0:05.964',-2.335
'0:05.966',-2.425
'0:05.968',-2.330
'0:05.970',-2.290
'0:05.972',-2.320
'0:05.974',-2.380
'0:05.976',-2.400
'0:05.978',-2.555
'0:05.980',-2.450
'0:05.982',-2.415
'0:05.984',-2.430
'0:05.986',-2.490
'0:05.988',-2.475
'0:05.990',-2.465
'0:05.992',-2.535
'0:05.994',-2.540
'0:05.996',-2.495
'0:05.998',-2.520
'0:06.000',-2.560
'0:06.002',-2.495
'0:06.004',-2.590
'0:06.006',-2.535
'0:06.008',-2.490
'0:06.010',-2.550
'0:06.012',-2.525
'0:06.014',-2.600
'0:06.016',-2.660
'0:06.018',-2.595
'0:06.020',-2.625
'0:06.022',-2.585
'0:06.024',-2.615
'0:06.026',-2.580
'0:06.028',-2.565
'0:06.030',-2.530
'0:06.032',-2.585
'0:06.034',-2.575
'0:06.036',-2.530
'0:06.038',-2.605
'0:06.040',-2.590
'0:06.042',-2.580
'0:06.044',-2.660
'0:06.046',-2.650
'0:06.048',-2.630
'0:06.050',-2.505
'0:06.052',-2.525
'0:06.054',-2.610
'0:06.056',-2.560
'0:06.058',-2.570
'0:06.060',-2.595
'0:06.062',-2.600
'0:06.064',-2.585
'0:06.066',-2.580
'0:06.068',-2.545
'0:06.070',-2.525
'0:06.072',-2.575
'0:06.074',-2.585
'0:06.076',-2.595
'0:06.078',-2.585
'0:06.080',-2.600
'0:06.082',-2.600
'0:06.084',-2.575
'0:06.086',-2.570
'0:06.088',-2.530
'0:06.090',-2.555
'0:06.092',-2.595
'0:06.094',-2.635
'0:06.096',-2.575
'0:06.098',-2.555
'0:06.100',-2.640
'0:06.102',-2.660
'0:06.104',-2.555
'0:06.106',-2.575
'0:06.108',-2.680
'0:06.110',-2.610
'0:06.112',-2.615
'0:06.114',-2.585
'0:06.116',-2.585
'0:06.118',-2.630
'0:06.120',-2.530
'0:06.122',-2.515
'0:06.124',-2.605
'0:06.126',-2.605
'0:06.128',-2.580
'0:06.130',-2.540
'0:06.132',-2.565
'0:06.134',-2.535
'0:06.136',-2.605
'0:06.138',-2.555
'0:06.140',-2.705
'0:06.142',-2.710
'0:06.144',-2.605
'0:06.146',-2.615
'0:06.148',-2.515
'0:06.150',-2.560
'0:06.152',-2.625
'0:06.154',-2.625
'0:06.156',-2.590
'0:06.158',-2.590
'0:06.160',-2.575
'0:06.162',-2.560
'0:06.164',-2.595
'0:06.166',-2.575
'0:06.168',-2.595
'0:06.170',-2.620
'0:06.172',-2.615
'0:06.174',-2.570
'0:06.176',-2.625
'0:06.178',-2.595
'0:06.180',-2.555
'0:06.182',-2.545
'0:06.184',-2.620
'0:06.186',-2.635
'0:06.188',-2.655
'0:06.190',-2.610
'0:06.192',-2.550
'0:06.194',-2.525
'0:06.196',-2.550
'0:06.198',-2.510
'0:06.200',-2.595
'0:06.202',-2.595
'0:06.204',-2.585
'0:06.206',-2.605
'0:06.208',-2.585
'0:06.210',-2.620
'0:06.212',-2.595
'0:06.214',-2.520
'0:06.216',-2.470
'0:06.218',-2.490
'0:06.220',-2.490
'0:06.222',-2.485
'0:06.224',-2.470
'0:06.226',-2.550
'0:06.228',-2.485
'0:06.230',-2.500
'0:06.232',-2.440
'0:06.234',-2.510
'0:06.236',-2.490
'0:06.238',-2.510
'0:06.240',-2.585
'0:06.242',-2.505
'0:06.244',-2.525
'0:06.246',-2.540
'0:06.248',-2.565
'0:06.250',-2.560
'0:06.252',-2.620
'0:06.254',-2.580
'0:06.256',-2.445
'0:06.258',-2.555
'0:06.260',-2.570
'0:06.262',-2.555
'0:06.264',-2.545
'0:06.266',-2.600
'0:06.268',-2.660
'0:06.270',-2.645
'0:06.272',-2.545
'0:06.274',-2.505
'0:06.276',-2.545
'0:06.278',-2.655
'0:06.280',-2.605
'0:06.282',-2.625
'0:06.284',-2.630
'0:06.286',-2.555
'0:06.288',-2.590
'0:06.290',-2.635
'0:06.292',-2.575
'0:06.294',-2.550
'0:06.296',-2.555
'0:06.298',-2.595
'0:06.300',-2.610
'0:06.302',-2.580
'0:06.304',-2.650
'0:06.306',-2.590
'0:06.308',-2.580
'0:06.310',-2.580
'0:06.312',-2.610
'0:06.314',-2.700
'0:06.316',-2.555
'0:06.318',-2.615
'0:06.320',-2.640
'0:06.322',-2.575
'0:06.324',-2.585
'0:06.326',-2.550
'0:06.328',-2.400
'0:06.330',-2.375
'0:06.332',-2.250
'0:06.334',-2.260
'0:06.336',-2.255
'0:06.338',-2.220
'0:06.340',-2.235
'0:06.342',-2.265
'0:06.344',-2.340
'0:06.346',-2.335
'0:06.348',-2.405
'0:06.350',-2.515
'0:06.352',-2.565
'0:06.354',-2.645
'0:06.356',-2.765
'0:06.358',-2.745
'0:06.360',-2.810
'0:06.362',-2.805
'0:06.364',-2.895
'0:06.366',-2.815
'0:06.368',-2.805
'0:06.370',-2.880
'0:06.372',-2.865
'0:06.374',-2.785
'0:06.376',-2.715
'0:06.378',-2.690
'0:06.380',-2.730
'0:06.382',-2.655
'0:06.384',-2.635
'0:06.386',-2.655
'0:06.388',-2.560
'0:06.390',-2.585
'0:06.392',-2.620
'0:06.394',-2.620
'0:06.396',-2.550
'0:06.398',-2.630
'0:06.400',-2.575
'0:06.402',-2.525
'0:06.404',-2.555
'0:06.406',-2.540
'0:06.408',-2.580
'0:06.410',-2.650
'0:06.412',-2.575
'0:06.414',-2.550
'0:06.416',-2.605
'0:06.418',-2.575
'0:06.420',-2.580
'0:06.422',-2.520
'0:06.424',-2.570
'0:06.426',-2.555
'0:06.428',-2.465
'0:06.430',-2.495
'0:06.432',-2.530
'0:06.434',-2.510
'0:06.436',-2.535
'0:06.438',-2.540
'0:06.440',-2.500
'0:06.442',-2.530
'0:06.444',-2.580
'0:06.446',-2.540
'0:06.448',-2.555
'0:06.450',-2.545
'0:06.452',-2.510
'0:06.454',-2.545
'0:06.456',-2.525
'0:06.458',-2.495
'0:06.460',-2.465
'0:06.462',-2.485
'0:06.464',-2.495
'0:06.466',-2.560
'0:06.468',-2.480
'0:06.470',-2.475
'0:06.472',-2.435
'0:06.474',-2.360
'0:06.476',-2.405
'0:06.478',-2.495
'0:06.480',-2.420
'0:06.482',-2.420
'0:06.484',-2.380
'0:06.486',-2.380
'0:06.488',-2.420
'0:06.490',-2.395
'0:06.492',-2.350
'0:06.494',-2.315
'0:06.496',-2.350
'0:06.498',-2.360
'0:06.500',-2.320
'0:06.502',-2.275
'0:06.504',-2.305
'0:06.506',-2.255
'0:06.508',-2.345
'0:06.510',-2.265
'0:06.512',-2.255
'0:06.514',-2.340
'0:06.516',-2.155
'0:06.518',-2.225
'0:06.520',-2.230
'0:06.522',-2.240
'0:06.524',-2.290
'0:06.526',-2.185
'0:06.528',-2.165
'0:06.530',-2.235
'0:06.532',-2.235
'0:06.534',-2.260
'0:06.536',-2.245
'0:06.538',-2.190
'0:06.540',-2.110
'0:06.542',-2.160
'0:06.544',-2.200
'0:06.546',-2.265
'0:06.548',-2.195
'0:06.550',-2.175
'0:06.552',-2.190
'0:06.554',-2.190
'0:06.556',-2.215
'0:06.558',-2.260
'0:06.560',-2.270
'0:06.562',-2.290
'0:06.564',-2.260
'0:06.566',-2.270
'0:06.568',-2.370
'0:06.570',-2.325
'0:06.572',-2.330
'0:06.574',-2.330
'0:06.576',-2.315
'0:06.578',-2.380
'0:06.580',-2.365
'0:06.582',-2.320
'0:06.584',-2.480
'0:06.586',-2.455
'0:06.588',-2.335
'0:06.590',-2.380
'0:06.592',-2.430
'0:06.594',-2.435
'0:06.596',-2.420
'0:06.598',-2.430
'0:06.600',-2.455
'0:06.602',-2.425
'0:06.604',-2.375
'0:06.606',-2.465
'0:06.608',-2.430
'0:06.610',-2.410
'0:06.612',-2.430
'0:06.614',-2.430
'0:06.616',-2.465
'0:06.618',-2.470
'0:06.620',-2.475
'0:06.622',-2.485
'0:06.624',-2.530
'0:06.626',-2.440
'0:06.628',-2.455
'0:06.630',-2.430
'0:06.632',-2.390
'0:06.634',-2.430
'0:06.636',-2.510
'0:06.638',-2.450
'0:06.640',-2.465
'0:06.642',-2.405
'0:06.644',-2.390
'0:06.646',-2.440
'0:06.648',-2.440
'0:06.650',-2.410
'0:06.652',-2.545
'0:06.654',-2.545
'0:06.656',-2.485
'0:06.658',-2.455
'0:06.660',-2.470
'0:06.662',-2.355
'0:06.664',-2.365
'0:06.666',-2.450
'0:06.668',-2.410
'0:06.670',-2.390
'0:06.672',-2.430
'0:06.674',-2.415
'0:06.676',-2.395
'0:06.678',-2.425
'0:06.680',-2.465
'0:06.682',-2.470
'0:06.684',-2.410
'0:06.686',-2.405
'0:06.688',-2.435
'0:06.690',-2.450
'0:06.692',-2.435
'0:06.694',-2.475
'0:06.696',-2.435
'0:06.698',-2.485
'0:06.700',-2.415
'0:06.702',-2.385
'0:06.704',-2.390
'0:06.706',-2.360
'0:06.708',-2.390
'0:06.710',-2.415
'0:06.712',-2.435
'0:06.714',-2.440
'0:06.716',-2.535
'0:06.718',-2.455
'0:06.720',-2.560
'0:06.722',-2.550
'0:06.724',-2.450
'0:06.726',-2.455
'0:06.728',-2.430
'0:06.730',-2.445
'0:06.732',-2.415
'0:06.734',-2.345
'0:06.736',-2.410
'0:06.738',-2.415
'0:06.740',-2.340
'0:06.742',-2.435
'0:06.744',-2.540
'0:06.746',-2.450
'0:06.748',-2.420
'0:06.750',-2.380
'0:06.752',-2.400
'0:06.754',-2.470
'0:06.756',-2.405
'0:06.758',-2.400
'0:06.760',-2.455
'0:06.762',-2.425
'0:06.764',-2.405
'0:06.766',-2.430
'0:06.768',-2.415
'0:06.770',-2.455
'0:06.772',-2.435
'0:06.774',-2.380
'0:06.776',-2.420
'0:06.778',-2.425
'0:06.780',-2.480
'0:06.782',-2.480
'0:06.784',-2.415
'0:06.786',-2.460
'0:06.788',-2.405
'0:06.790',-2.435
'0:06.792',-2.455
'0:06.794',-2.385
'0:06.796',-2.395
'0:06.798',-2.415
'0:06.800',-2.450
'0:06.802',-2.385
'0:06.804',-2.310
'0:06.806',-2.340
'0:06.808',-2.350
'0:06.810',-2.345
'0:06.812',-2.400
'0:06.814',-2.370
'0:06.816',-2.415
'0:06.818',-2.390
'0:06.820',-2.355
'0:06.822',-2.225
'0:06.824',-2.265
'0:06.826',-2.355
'0:06.828',-2.345
'0:06.830',-2.315
'0:06.832',-2.355
'0:06.834',-2.350
'0:06.836',-2.315
'0:06.838',-2.335
'0:06.840',-2.285
'0:06.842',-2.245
'0:06.844',-2.295
'0:06.846',-2.320
'0:06.848',-2.355
'0:06.850',-2.295
'0:06.852',-2.310
'0:06.854',-2.370
'0:06.856',-2.450
'0:06.858',-2.395
'0:06.860',-2.345
'0:06.862',-2.410
'0:06.864',-2.345
'0:06.866',-2.425
'0:06.868',-2.375
'0:06.870',-2.400
'0:06.872',-2.300
'0:06.874',-2.360
'0:06.876',-2.485
'0:06.878',-2.385
'0:06.880',-2.375
'0:06.882',-2.395
'0:06.884',-2.450
'0:06.886',-2.440
'0:06.888',-2.415
'0:06.890',-2.425
'0:06.892',-2.380
'0:06.894',-2.390
'0:06.896',-2.375
'0:06.898',-2.450
'0:06.900',-2.510
'0:06.902',-2.460
'0:06.904',-2.415
'0:06.906',-2.430
'0:06.908',-2.325
'0:06.910',-2.310
'0:06.912',-2.385
'0:06.914',-2.405
'0:06.916',-2.395
'0:06.918',-2.410
'0:06.920',-2.410
'0:06.922',-2.475
'0:06.924',-2.465
'0:06.926',-2.445
'0:06.928',-2.460
'0:06.930',-2.360
'0:06.932',-2.295
'0:06.934',-2.205
'0:06.936',-2.165
'0:06.938',-2.060
'0:06.940',-1.960
'0:06.942',-1.930
'0:06.944',-1.945
'0:06.946',-2.065
'0:06.948',-2.140
'0:06.950',-2.130
'0:06.952',-2.205
'0:06.954',-2.210
'0:06.956',-2.265
'0:06.958',-2.390
'0:06.960',-2.485
'0:06.962',-2.550
'0:06.964',-2.585
'0:06.966',-2.650
'0:06.968',-2.590
'0:06.970',-2.685
'0:06.972',-2.695
'0:06.974',-2.680
'0:06.976',-2.665
'0:06.978',-2.610
'0:06.980',-2.560
'0:06.982',-2.570
'0:06.984',-2.540
'0:06.986',-2.490
'0:06.988',-2.475
'0:06.990',-2.490
'0:06.992',-2.475
'0:06.994',-2.560
'0:06.996',-2.450
'0:06.998',-2.360
'0:07.000',-2.485
'0:07.002',-2.425
'0:07.004',-2.365
'0:07.006',-2.330
'0:07.008',-2.370
'0:07.010',-2.350
'0:07.012',-2.440
'0:07.014',-2.470
'0:07.016',-2.380
'0:07.018',-2.400
'0:07.020',-2.410
'0:07.022',-2.485
'0:07.024',-2.365
'0:07.026',-2.295
'0:07.028',-2.360
'0:07.030',-2.330
'0:07.032',-2.370
'0:07.034',-2.370
'0:07.036',-2.375
'0:07.038',-2.375
'0:07.040',-2.400
'0:07.042',-2.390
'0:07.044',-2.305
'0:07.046',-2.315
'0:07.048',-2.315
'0:07.050',-2.355
'0:07.052',-2.335
'0:07.054',-2.345
'0:07.056',-2.355
'0:07.058',-2.365
'0:07.060',-2.370
'0:07.062',-2.350
'0:07.064',-2.305
'0:07.066',-2.305
'0:07.068',-2.315
'0:07.070',-2.340
'0:07.072',-2.355
'0:07.074',-2.300
'0:07.076',-2.275
'0:07.078',-2.340
'0:07.080',-2.300
'0:07.082',-2.270
'0:07.084',-2.285
'0:07.086',-2.315
'0:07.088',-2.200
'0:07.090',-2.195
'0:07.092',-2.205
'0:07.094',-2.135
'0:07.096',-2.200
'0:07.098',-2.295
'0:07.100',-2.250
'0:07.102',-2.250
'0:07.104',-2.175
'0:07.106',-2.135
'0:07.108',-2.110
'0:07.110',-2.080
'0:07.112',-2.035
'0:07.114',-2.115
'0:07.116',-2.115
'0:07.118',-2.140
'0:07.120',-2.140
'0:07.122',-2.165
'0:07.124',-2.185
'0:07.126',-2.055
'0:07.128',-2.015
'0:07.130',-2.055
'0:07.132',-2.055
'0:07.134',-2.075
'0:07.136',-2.055
'0:07.138',-2.025
'0:07.140',-2.025
'0:07.142',-1.985
'0:07.144',-1.980
'0:07.146',-2.045
'0:07.148',-2.090
'0:07.150',-2.000
'0:07.152',-2.095
'0:07.154',-2.140
'0:07.156',-2.055
'0:07.158',-2.080
'0:07.160',-2.035
'0:07.162',-2.065
'0:07.164',-2.085
'0:07.166',-2.075
'0:07.168',-2.075
'0:07.170',-2.185
'0:07.172',-2.035
'0:07.174',-2.145
'0:07.176',-2.180
'0:07.178',-2.200
'0:07.180',-2.190
'0:07.182',-2.195
'0:07.184',-2.195
'0:07.186',-2.130
'0:07.188',-2.140
'0:07.190',-2.265
'0:07.192',-2.225
'0:07.194',-2.200
'0:07.196',-2.245
'0:07.198',-2.260
'0:07.200',-2.240
'0:07.202',-2.350
'0:07.204',-2.295
'0:07.206',-2.215
'0:07.208',-2.265
'0:07.210',-2.270
'0:07.212',-2.255
'0:07.214',-2.235
'0:07.216',-2.325
'0:07.218',-2.290
'0:07.220',-2.350
'0:07.222',-2.330
'0:07.224',-2.365
'0:07.226',-2.285
'0:07.228',-2.270
'0:07.230',-2.280
'0:07.232',-2.275
'0:07.234',-2.300
'0:07.236',-2.285
'0:07.238',-2.265
'0:07.240',-2.320
'0:07.242',-2.295
'0:07.244',-2.335
'0:07.246',-2.335
'0:07.248',-2.310
'0:07.250',-2.300
'0:07.252',-2.345
'0:07.254',-2.315
'0:07.256',-2.230
'0:07.258',-2.260
'0:07.260',-2.375
'0:07.262',-2.355
'0:07.264',-2.335
'0:07.266',-2.290
'0:07.268',-2.330
'0:07.270',-2.395
'0:07.272',-2.220
'0:07.274',-2.205
'0:07.276',-2.370
'0:07.278',-2.320
'0:07.280',-2.340
'0:07.282',-2.305
'0:07.284',-2.285
'0:07.286',-2.300
'0:07.288',-2.290
'0:07.290',-2.315
'0:07.292',-2.320
'0:07.294',-2.305
'0:07.296',-2.295
'0:07.298',-2.280
'0:07.300',-2.250
'0:07.302',-2.240
'0:07.304',-2.270
'0:07.306',-2.300
'0:07.308',-2.325
'0:07.310',-2.295
'0:07.312',-2.350
'0:07.314',-2.320
'0:07.316',-2.345
'0:07.318',-2.290
'0:07.320',-2.265
'0:07.322',-2.300
'0:07.324',-2.350
'0:07.326',-2.285
'0:07.328',-2.345
'0:07.330',-2.280
'0:07.332',-2.380
'0:07.334',-2.345
'0:07.336',-2.270
'0:07.338',-2.405
'0:07.340',-2.385
'0:07.342',-2.260
'0:07.344',-2.270
'0:07.346',-2.225
'0:07.348',-2.255
'0:07.350',-2.300
'0:07.352',-2.320
'0:07.354',-2.310
'0:07.356',-2.350
'0:07.358',-2.355
'0:07.360',-2.315
'0:07.362',-2.275
'0:07.364',-2.245
'0:07.366',-2.245
'0:07.368',-2.300
'0:07.370',-2.300
'0:07.372',-2.325
'0:07.374',-2.315
'0:07.376',-2.290
'0:07.378',-2.325
'0:07.380',-2.300
'0:07.382',-2.250
'0:07.384',-2.195
'0:07.386',-2.265
'0:07.388',-2.280
'0:07.390',-2.320
'0:07.392',-2.265
'0:07.394',-2.275
'0:07.396',-2.260
'0:07.398',-2.325
'0:07.400',-2.305
'0:07.402',-2.230
'0:07.404',-2.230
'0:07.406',-2.180
'0:07.408',-2.230
'0:07.410',-2.200
'0:07.412',-2.340
'0:07.414',-2.230
'0:07.416',-2.215
'0:07.418',-2.215
'0:07.420',-2.170
'0:07.422',-2.180
'0:07.424',-2.180
'0:07.426',-2.145
'0:07.428',-2.170
'0:07.430',-2.205
'0:07.432',-2.175
'0:07.434',-2.175
'0:07.436',-2.215
'0:07.438',-2.215
'0:07.440',-2.260
'0:07.442',-2.275
'0:07.444',-2.300
'0:07.446',-2.290
'0:07.448',-2.300
'0:07.450',-2.355
'0:07.452',-2.330
'0:07.454',-2.295
'0:07.456',-2.345
'0:07.458',-2.415
'0:07.460',-2.325
'0:07.462',-2.245
'0:07.464',-2.315
'0:07.466',-2.255
'0:07.468',-2.300
'0:07.470',-2.305
'0:07.472',-2.270
'0:07.474',-2.395
'0:07.476',-2.385
'0:07.478',-2.280
'0:07.480',-2.370
'0:07.482',-2.375
'0:07.484',-2.285
'0:07.486',-2.320
'0:07.488',-2.330
'0:07.490',-2.270
'0:07.492',-2.260
'0:07.494',-2.515
'0:07.496',-2.330
'0:07.498',-2.320
'0:07.500',-2.305
'0:07.502',-2.260
'0:07.504',-2.325
'0:07.506',-2.320
'0:07.508',-2.340
'0:07.510',-2.365
'0:07.512',-2.295
'0:07.514',-2.305
'0:07.516',-2.290
'0:07.518',-2.145
'0:07.520',-2.020
'0:07.522',-1.955
'0:07.524',-1.890
'0:07.526',-1.890
'0:07.528',-1.910
'0:07.530',-1.965
'0:07.532',-1.915
'0:07.534',-1.960
'0:07.536',-2.045
'0:07.538',-2.135
'0:07.540',-2.160
'0:07.542',-2.280
'0:07.544',-2.365
'0:07.546',-2.455
'0:07.548',-2.525
'0:07.550',-2.555
'0:07.552',-2.575
'0:07.554',-2.560
'0:07.556',-2.625
'0:07.558',-2.580
'0:07.560',-2.570
'0:07.562',-2.675
'0:07.564',-2.455
'0:07.566',-2.450
'0:07.568',-2.380
'0:07.570',-2.410
'0:07.572',-2.370
'0:07.574',-2.335
'0:07.576',-2.320
'0:07.578',-2.270
'0:07.580',-2.280
'0:07.582',-2.310
'0:07.584',-2.295
'0:07.586',-2.255
'0:07.588',-2.270
'0:07.590',-2.330
'0:07.592',-2.320
'0:07.594',-2.340
'0:07.596',-2.280
'0:07.598',-2.295
'0:07.600',-2.305
'0:07.602',-2.290
'0:07.604',-2.295
'0:07.606',-2.265
'0:07.608',-2.290
'0:07.610',-2.300
'0:07.612',-2.320
'0:07.614',-2.250
'0:07.616',-2.245
'0:07.618',-2.345
'0:07.620',-2.295
'0:07.622',-2.300
'0:07.624',-2.260
'0:07.626',-2.265
'0:07.628',-2.290
'0:07.630',-2.250
'0:07.632',-2.210
'0:07.634',-2.230
'0:07.636',-2.290
'0:07.638',-2.390
'0:07.640',-2.265
'0:07.642',-2.155
'0:07.644',-2.210
'0:07.646',-2.195
'0:07.648',-2.205
'0:07.650',-2.200
'0:07.652',-2.220
'0:07.654',-2.225
'0:07.656',-2.170
'0:07.658',-2.155
'0:07.660',-2.195
'0:07.662',-2.220
'0:07.664',-2.155
'0:07.666',-2.170
'0:07.668',-2.120
'0:07.670',-2.110
'0:07.672',-2.225
'0:07.674',-2.135
'0:07.676',-2.090
'0:07.678',-2.080
'0:07.680',-2.070
'0:07.682',-2.115
'0:07.684',-2.090
'0:07.686',-2.105
'0:07.688',-2.070
'0:07.690',-2.130
'0:07.692',-2.080
'0:07.694',-2.045
'0:07.696',-2.035
'0:07.698',-2.010
'0:07.700',-1.965
'0:07.702',-1.940
'0:07.704',-1.950
'0:07.706',-1.920
'0:07.708',-1.945
'0:07.710',-1.965
'0:07.712',-1.920
'0:07.714',-1.975
'0:07.716',-1.955
'0:07.718',-1.955
'0:07.720',-1.950
'0:07.722',-1.990
'0:07.724',-1.950
'0:07.726',-1.890
'0:07.728',-1.950
'0:07.730',-1.860
'0:07.732',-1.875
'0:07.734',-1.940
'0:07.736',-1.885
'0:07.738',-1.865
'0:07.740',-1.925
'0:07.742',-1.905
'0:07.744',-1.935
'0:07.746',-1.925
'0:07.748',-1.940
'0:07.750',-1.970
'0:07.752',-1.955
'0:07.754',-1.995
'0:07.756',-1.995
'0:07.758',-1.940
'0:07.760',-2.045
'0:07.762',-2.110
'0:07.764',-2.105
'0:07.766',-2.010
'0:07.768',-2.075
'0:07.770',-2.130
'0:07.772',-2.110
'0:07.774',-2.150
'0:07.776',-2.175
'0:07.778',-2.120
'0:07.780',-2.110
'0:07.782',-2.175
'0:07.784',-2.125
'0:07.786',-2.090
'0:07.788',-2.130
'0:07.790',-2.185
'0:07.792',-2.215
'0:07.794',-2.150
'0:07.796',-2.175
'0:07.798',-2.090
'0:07.800',-2.175
'0:07.802',-2.215
'0:07.804',-2.145
'0:07.806',-2.175
'0:07.808',-2.135
'0:07.810',-2.210
'0:07.812',-2.220
'0:07.814',-2.180
'0:07.816',-2.150
'0:07.818',-2.215
'0:07.820',-2.155
'0:07.822',-2.195
'0:07.824',-2.150
'0:07.826',-2.205
'0:07.828',-2.185
'0:07.830',-2.160
'0:07.832',-2.195
'0:07.834',-2.190
'0:07.836',-2.170
'0:07.838',-2.145
'0:07.840',-2.210
'0:07.842',-2.230
'0:07.844',-2.195
'0:07.846',-2.170
'0:07.848',-2.275
'0:07.850',-2.280
'0:07.852',-2.185
'0:07.854',-2.105
'0:07.856',-2.250
'0:07.858',-2.285
'0:07.860',-2.090
'0:07.862',-2.100
'0:07.864',-2.200
'0:07.866',-2.235
'0:07.868',-2.175
'0:07.870',-2.130
'0:07.872',-2.130
'0:07.874',-2.150
'0:07.876',-2.190
'0:07.878',-2.200
'0:07.880',-2.210
'0:07.882',-2.140
'0:07.884',-2.095
'0:07.886',-2.210
'0:07.888',-2.230
'0:07.890',-2.230
'0:07.892',-2.200
'0:07.894',-2.165
'0:07.896',-2.160
'0:07.898',-2.185
'0:07.900',-2.195
'0:07.902',-2.180
'0:07.904',-2.205
'0:07.906',-2.180
'0:07.908',-2.170
'0:07.910',-2.215
'0:07.912',-2.220
'0:07.914',-2.180
'0:07.916',-2.150
'0:07.918',-2.130
'0:07.920',-2.135
'0:07.922',-2.225
'0:07.924',-2.210
'0:07.926',-2.170
'0:07.928',-2.180
'0:07.930',-2.150
'0:07.932',-2.175
'0:07.934',-2.185
'0:07.936',-2.225
'0:07.938',-2.185
'0:07.940',-2.110
'0:07.942',-2.160
'0:07.944',-2.205
'0:07.946',-2.190
'0:07.948',-2.190
'0:07.950',-2.120
'0:07.952',-2.195
'0:07.954',-2.205
'0:07.956',-2.170
'0:07.958',-2.215
'0:07.960',-2.170
'0:07.962',-2.105
'0:07.964',-2.110
'0:07.966',-2.080
'0:07.968',-2.165
'0:07.970',-2.170
'0:07.972',-2.155
'0:07.974',-2.075
'0:07.976',-2.110
'0:07.978',-2.090
'0:07.980',-2.075
'0:07.982',-2.025
'0:07.984',-2.050
'0:07.986',-2.025
'0:07.988',-2.035
'0:07.990',-2.065
'0:07.992',-2.030
'0:07.994',-2.065
'0:07.996',-2.085
'0:07.998',-2.180
'0:08.000',-2.105
'0:08.002',-2.015
'0:08.004',-2.105
'0:08.006',-2.080
'0:08.008',-2.215
'0:08.010',-2.175
'0:08.012',-2.095
'0:08.014',-2.170
'0:08.016',-2.120
'0:08.018',-2.100
'0:08.020',-2.100
'0:08.022',-2.175
'0:08.024',-2.170
'0:08.026',-2.205
'0:08.028',-2.145
'0:08.030',-2.145
'0:08.032',-2.135
'0:08.034',-2.160
'0:08.036',-2.200
'0:08.038',-2.175
'0:08.040',-2.190
'0:08.042',-2.150
'0:08.044',-2.230
'0:08.046',-2.175
'0:08.048',-2.155
'0:08.050',-2.120
'0:08.052',-2.145
'0:08.054',-2.125
'0:08.056',-2.140
'0:08.058',-2.215
'0:08.060',-2.220
'0:08.062',-2.145
'0:08.064',-2.125
'0:08.066',-2.145
'0:08.068',-2.150
'0:08.070',-2.275
'0:08.072',-2.150
'0:08.074',-2.130
'0:08.076',-2.135
'0:08.078',-2.175
'0:08.080',-2.155
'0:08.082',-2.145
'0:08.084',-2.145
'0:08.086',-2.180
'0:08.088',-2.025
'0:08.090',-1.875
'0:08.092',-1.855
'0:08.094',-1.815
'0:08.096',-1.755
'0:08.098',-1.800
'0:08.100',-1.840
'0:08.102',-1.825
'0:08.104',-1.860
'0:08.106',-1.865
'0:08.108',-1.940
'0:08.110',-2.030
'0:08.112',-2.140
'0:08.114',-2.230
'0:08.116',-2.275
'0:08.118',-2.340
'0:08.120',-2.345
'0:08.122',-2.335
'0:08.124',-2.405
'0:08.126',-2.400
'0:08.128',-2.365
'0:08.130',-2.405
'0:08.132',-2.315
'0:08.134',-2.360
'0:08.136',-2.360
'0:08.138',-2.265
'0:08.140',-2.255
'0:08.142',-2.165
'0:08.144',-2.180
'0:08.146',-2.185
'0:08.148',-2.140
'0:08.150',-2.080
'0:08.152',-2.035
'0:08.154',-2.150
'0:08.156',-2.210
'0:08.158',-2.145
'0:08.160',-2.055
'0:08.162',-2.135
'0:08.164',-2.130
'0:08.166',-2.150
'0:08.168',-2.150
'0:08.170',-2.090
'0:08.172',-2.070
'0:08.174',-2.085
'0:08.176',-2.080
'0:08.178',-2.050
'0:08.180',-2.000
'0:08.182',-2.045
'0:08.184',-2.050
'0:08.186',-2.135
'0:08.188',-2.130
'0:08.190',-2.040
'0:08.192',-2.095
'0:08.194',-2.000
'0:08.196',-2.020
'0:08.198',-2.070
'0:08.200',-2.070
'0:08.202',-2.075
'0:08.204',-2.060
'0:08.206',-2.025
'0:08.208',-2.030
'0:08.210',-2.045
'0:08.212',-2.055
'0:08.214',-2.095
'0:08.216',-2.085
'0:08.218',-1.995
'0:08.220',-2.000
'0:08.222',-1.985
'0:08.224',-2.015
'0:08.226',-1.995
'0:08.228',-1.990
'0:08.230',-2.010
'0:08.232',-2.070
'0:08.234',-2.020
'0:08.236',-1.965
'0:08.238',-1.900
'0:08.240',-1.950
'0:08.242',-1.910
'0:08.244',-1.950
'0:08.246',-1.960
'0:08.248',-1.925
'0:08.250',-1.940
'0:08.252',-1.930
'0:08.254',-1.935
'0:08.256',-1.940
'0:08.258',-1.895
'0:08.260',-1.770
'0:08.262',-1.840
'0:08.264',-1.810
'0:08.266',-1.850
'0:08.268',-1.805
'0:08.270',-1.815
'0:08.272',-1.815
'0:08.274',-1.790
'0:08.276',-1.765
'0:08.278',-1.785
'0:08.280',-1.815
'0:08.282',-1.775
'0:08.284',-1.780
'0:08.286',-1.780
'0:08.288',-1.805
'0:08.290',-1.770
'0:08.292',-1.825
'0:08.294',-1.800
'0:08.296',-1.645
'0:08.298',-1.730
'0:08.300',-1.720
'0:08.302',-1.725
'0:08.304',-1.750
'0:08.306',-1.775
'0:08.308',-1.765
'0:08.310',-1.735
'0:08.312',-1.785
'0:08.314',-1.765
'0:08.316',-1.805
'0:08.318',-1.760
'0:08.320',-1.760
'0:08.322',-1.830
'0:08.324',-1.875
'0:08.326',-1.775
'0:08.328',-1.810
'0:08.330',-1.850
'0:08.332',-1.900
'0:08.334',-1.860
'0:08.336',-1.965
'0:08.338',-1.865
'0:08.340',-1.800
'0:08.342',-1.840
'0:08.344',-1.885
'0:08.346',-1.985
'0:08.348',-1.930
'0:08.350',-1.940
'0:08.352',-1.870
'0:08.354',-1.950
'0:08.356',-2.030
'0:08.358',-1.995
'0:08.360',-1.975
'0:08.362',-1.905
'0:08.364',-1.900
'0:08.366',-1.965
'0:08.368',-1.950
'0:08.370',-1.965
'0:08.372',-1.985
'0:08.374',-1.980
'0:08.376',-1.975
'0:08.378',-1.965
'0:08.380',-1.965
'0:08.382',-1.975
'0:08.384',-1.975
'0:08.386',-1.970
'0:08.388',-1.970
'0:08.390',-2.000
'0:08.392',-1.990
'0:08.394',-1.965
'0:08.396',-1.970
'0:08.398',-1.935
'0:08.400',-1.960
'0:08.402',-2.015
'0:08.404',-2.020
'0:08.406',-1.985
'0:08.408',-1.960
'0:08.410',-2.030
'0:08.412',-1.915
'0:08.414',-1.875
'0:08.416',-2.030
'0:08.418',-1.945
'0:08.420',-1.930
'0:08.422',-2.055
'0:08.424',-1.950
'0:08.426',-1.875
'0:08.428',-1.960
'0:08.430',-1.955
'0:08.432',-1.945
'0:08.434',-1.930
'0:08.436',-1.940
'0:08.438',-1.960
'0:08.440',-2.010
'0:08.442',-1.965
'0:08.444',-1.960
'0:08.446',-2.195
'0:08.448',-1.975
'0:08.450',-1.885
'0:08.452',-1.880
'0:08.454',-1.925
'0:08.456',-1.980
'0:08.458',-1.950
'0:08.460',-1.975
'0:08.462',-2.000
'0:08.464',-2.000
'0:08.466',-1.930
'0:08.468',-1.950
'0:08.470',-1.975
'0:08.472',-1.960
'0:08.474',-1.965
'0:08.476',-1.955
'0:08.478',-1.965
'0:08.480',-1.970
'0:08.482',-2.065
'0:08.484',-1.990
'0:08.486',-1.930
'0:08.488',-2.010
'0:08.490',-2.090
'0:08.492',-1.890
'0:08.494',-1.920
'0:08.496',-1.965
'0:08.498',-1.970
'0:08.500',-1.915
'0:08.502',-1.905
'0:08.504',-1.965
'0:08.506',-1.975
'0:08.508',-2.000
'0:08.510',-1.960
'0:08.512',-1.890
'0:08.514',-1.925
'0:08.516',-1.960
'0:08.518',-1.960
'0:08.520',-1.865
'0:08.522',-1.870
'0:08.524',-1.890
'0:08.526',-1.880
'0:08.528',-1.875
'0:08.530',-1.915
'0:08.532',-1.945
'0:08.534',-1.970
'0:08.536',-1.950
'0:08.538',-1.960
'0:08.540',-1.870
'0:08.542',-1.915
'0:08.544',-1.870
'0:08.546',-1.910
'0:08.548',-1.950
'0:08.550',-1.890
'0:08.552',-1.880
'0:08.554',-1.900
'0:08.556',-1.915
'0:08.558',-1.955
'0:08.560',-2.035
'0:08.562',-1.940
'0:08.564',-1.900
'0:08.566',-1.985
'0:08.568',-2.025
'0:08.570',-2.035
'0:08.572',-1.995
'0:08.574',-2.045
'0:08.576',-2.010
'0:08.578',-1.980
'0:08.580',-1.940
'0:08.582',-1.935
'0:08.584',-1.970
'0:08.586',-2.000
'0:08.588',-1.985
'0:08.590',-1.975
'0:08.592',-1.900
'0:08.594',-1.965
'0:08.596',-2.025
'0:08.598',-1.955
'0:08.600',-1.965
'0:08.602',-2.065
'0:08.604',-1.995
'0:08.606',-2.070
'0:08.608',-1.950
'0:08.610',-1.940
'0:08.612',-1.975
'0:08.614',-2.010
'0:08.616',-1.965
'0:08.618',-1.925
'0:08.620',-1.980
'0:08.622',-2.045
'0:08.624',-1.990
'0:08.626',-1.990
'0:08.628',-1.990
'0:08.630',-2.000
'0:08.632',-1.950
'0:08.634',-1.930
'0:08.636',-1.805
'0:08.638',-1.760
'0:08.640',-1.750
'0:08.642',-1.715
'0:08.644',-1.665
'0:08.646',-1.715
'0:08.648',-1.745
'0:08.650',-1.715
'0:08.652',-1.715
'0:08.654',-1.755
'0:08.656',-1.770
'0:08.658',-1.790
'0:08.660',-1.945
'0:08.662',-2.120
'0:08.664',-2.085
'0:08.666',-2.115
'0:08.668',-2.240
'0:08.670',-2.270
'0:08.672',-2.205
'0:08.674',-2.235
'0:08.676',-2.230
'0:08.678',-2.205
'0:08.680',-2.170
'0:08.682',-2.140
'0:08.684',-2.125
'0:08.686',-2.090
'0:08.688',-2.055
'0:08.690',-2.040
'0:08.692',-2.045
'0:08.694',-1.955
'0:08.696',-1.975
'0:08.698',-1.995
'0:08.700',-1.965
'0:08.702',-2.025
'0:08.704',-1.975
'0:08.706',-2.015
'0:08.708',-2.020
'0:08.710',-1.960
'0:08.712',-1.995
'0:08.714',-1.975
'0:08.716',-2.020
'0:08.718',-2.020
'0:08.720',-1.920
'0:08.722',-2.005
'0:08.724',-2.040
'0:08.726',-1.975
'0:08.728',-1.820
'0:08.730',-1.910
'0:08.732',-1.890
'0:08.734',-1.920
'0:08.736',-1.915
'0:08.738',-1.925
'0:08.740',-1.940
'0:08.742',-1.945
'0:08.744',-1.875
'0:08.746',-1.935
'0:08.748',-2.005
'0:08.750',-1.850
'0:08.752',-1.790
'0:08.754',-1.875
'0:08.756',-1.945
'0:08.758',-1.985
'0:08.760',-1.980
'0:08.762',-1.930
'0:08.764',-1.885
'0:08.766',-1.875
'0:08.768',-1.915
'0:08.770',-1.835
'0:08.772',-1.870
'0:08.774',-1.850
'0:08.776',-1.880
'0:08.778',-1.905
'0:08.780',-1.865
'0:08.782',-1.860
'0:08.784',-1.850
'0:08.786',-1.830
'0:08.788',-1.830
'0:08.790',-1.800
'0:08.792',-1.830
'0:08.794',-1.910
'0:08.796',-1.785
'0:08.798',-1.700
'0:08.800',-1.750
'0:08.802',-1.805
'0:08.804',-1.795
'0:08.806',-1.760
'0:08.808',-1.845
'0:08.810',-1.825
'0:08.812',-1.720
'0:08.814',-1.590
'0:08.816',-1.690
'0:08.818',-1.655
'0:08.820',-1.675
'0:08.822',-1.700
'0:08.824',-1.670
'0:08.826',-1.650
'0:08.828',-1.655
'0:08.830',-1.655
'0:08.832',-1.685
'0:08.834',-1.665
'0:08.836',-1.710
'0:08.838',-1.690
'0:08.840',-1.645
'0:08.842',-1.645
'0:08.844',-1.680
'0:08.846',-1.675
'0:08.848',-1.665
'0:08.850',-1.725
'0:08.852',-1.670
'0:08.854',-1.585
'0:08.856',-1.645
'0:08.858',-1.665
'0:08.860',-1.710
'0:08.862',-1.760
'0:08.864',-1.705
'0:08.866',-1.740
'0:08.868',-1.680
'0:08.870',-1.740
'0:08.872',-1.745
'0:08.874',-1.700
'0:08.876',-1.795
'0:08.878',-1.880
'0:08.880',-1.770
'0:08.882',-1.705
'0:08.884',-1.780
'0:08.886',-1.815
'0:08.888',-1.815
'0:08.890',-1.760
'0:08.892',-1.850
'0:08.894',-1.875
'0:08.896',-1.850
'0:08.898',-1.815
'0:08.900',-1.825
'0:08.902',-1.845
'0:08.904',-1.900
'0:08.906',-1.850
'0:08.908',-1.905
'0:08.910',-1.955
'0:08.912',-2.015
'0:08.914',-1.925
'0:08.916',-1.865
'0:08.918',-1.930
'0:08.920',-1.865
'0:08.922',-1.805
'0:08.924',-1.850
'0:08.926',-1.920
'0:08.928',-1.930
'0:08.930',-1.965
'0:08.932',-1.955
'0:08.934',-1.885
'0:08.936',-1.920
'0:08.938',-1.920
'0:08.940',-1.890
'0:08.942',-1.890
'0:08.944',-1.915
'0:08.946',-1.905
'0:08.948',-1.880
'0:08.950',-1.875
'0:08.952',-1.885
'0:08.954',-1.870
'0:08.956',-1.870
'0:08.958',-1.855
'0:08.960',-1.900
'0:08.962',-1.940
'0:08.964',-1.905
'0:08.966',-1.905
'0:08.968',-1.835
'0:08.970',-1.810
'0:08.972',-1.880
'0:08.974',-1.895
'0:08.976',-1.925
'0:08.978',-1.865
'0:08.980',-1.865
'0:08.982',-1.870
'0:08.984',-1.960
'0:08.986',-1.985
'0:08.988',-1.965
'0:08.990',-1.845
'0:08.992',-1.855
'0:08.994',-1.855
'0:08.996',-1.850
'0:08.998',-1.940
'0:09.000',-1.990
'0:09.002',-1.980
'0:09.004',-1.760
'0:09.006',-1.775
'0:09.008',-1.915
'0:09.010',-1.885
'0:09.012',-1.815
'0:09.014',-1.825
'0:09.016',-1.960
'0:09.018',-1.885
'0:09.020',-1.860
'0:09.022',-1.860
'0:09.024',-1.845
'0:09.026',-1.925
'0:09.028',-1.950
'0:09.030',-1.885
'0:09.032',-1.880
'0:09.034',-1.870
'0:09.036',-1.925
'0:09.038',-1.910
'0:09.040',-1.920
'0:09.042',-1.870
'0:09.044',-1.860
'0:09.046',-1.870
'0:09.048',-1.880
'0:09.050',-1.885
'0:09.052',-1.885
'0:09.054',-1.895
'0:09.056',-1.900
'0:09.058',-1.880
'0:09.060',-1.855
'0:09.062',-1.960
'0:09.064',-1.950
'0:09.066',-1.840
'0:09.068',-1.855
'0:09.070',-1.925
'0:09.072',-1.895
'0:09.074',-1.825
'0:09.076',-1.840
'0:09.078',-1.910
'0:09.080',-1.870
'0:09.082',-1.840
'0:09.084',-1.890
'0:09.086',-1.760
'0:09.088',-1.770
'0:09.090',-1.840
'0:09.092',-1.865
'0:09.094',-1.825
'0:09.096',-1.750
'0:09.098',-1.770
'0:09.100',-1.810
'0:09.102',-1.785
'0:09.104',-1.750
'0:09.106',-1.900
'0:09.108',-1.800
'0:09.110',-1.720
'0:09.112',-1.765
'0:09.114',-1.720
'0:09.116',-1.825
'0:09.118',-1.840
'0:09.120',-1.790
'0:09.122',-1.820
'0:09.124',-1.840
'0:09.126',-1.910
'0:09.128',-1.900
'0:09.130',-1.885
'0:09.132',-1.890
'0:09.134',-1.885
'0:09.136',-1.935
'0:09.138',-2.020
'0:09.140',-2.015
'0:09.142',-1.855
'0:09.144',-1.805
'0:09.146',-1.805
'0:09.148',-1.875
'0:09.150',-1.885
'0:09.152',-1.835
'0:09.154',-1.905
'0:09.156',-1.905
'0:09.158',-1.920
'0:09.160',-1.825
'0:09.162',-1.830
'0:09.164',-1.850
'0:09.166',-1.940
'0:09.168',-1.885
'0:09.170',-1.885
'0:09.172',-1.845
'0:09.174',-1.785
'0:09.176',-1.930
'0:09.178',-1.895
'0:09.180',-1.880
'0:09.182',-1.830
'0:09.184',-1.830
'0:09.186',-1.880
'0:09.188',-1.850
'0:09.190',-1.925
'0:09.192',-1.890
'0:09.194',-1.950
'0:09.196',-1.990
'0:09.198',-1.980
'0:09.200',-1.895
'0:09.202',-1.855
'0:09.204',-1.800
'0:09.206',-1.700
'0:09.208',-1.670
'0:09.210',-1.620
'0:09.212',-1.535
'0:09.214',-1.515
'0:09.216',-1.650
'0:09.218',-1.635
'0:09.220',-1.540
'0:09.222',-1.595
'0:09.224',-1.640
'0:09.226',-1.745
'0:09.228',-1.865
'0:09.230',-1.970
'0:09.232',-2.040
'0:09.234',-2.015
'0:09.236',-2.055
'0:09.238',-2.055
'0:09.240',-2.110
'0:09.242',-2.125
'0:09.244',-2.090
'0:09.246',-2.090
'0:09.248',-2.095
'0:09.250',-2.080
'0:09.252',-2.030
'0:09.254',-1.985
'0:09.256',-1.970
'0:09.258',-1.985
'0:09.260',-2.010
'0:09.262',-1.920
'0:09.264',-1.885
'0:09.266',-1.870
'0:09.268',-1.880
'0:09.270',-2.090
'0:09.272',-2.015
'0:09.274',-1.910
'0:09.276',-1.800
'0:09.278',-1.815
'0:09.280',-1.855
'0:09.282',-1.920
'0:09.284',-1.825
'0:09.286',-1.845
'0:09.288',-1.830
'0:09.290',-1.845
'0:09.292',-1.850
'0:09.294',-1.845
'0:09.296',-1.880
'0:09.298',-1.930
'0:09.300',-1.820
'0:09.302',-1.940
'0:09.304',-1.850
'0:09.306',-1.800
'0:09.308',-1.765
'0:09.310',-1.815
'0:09.312',-1.835
'0:09.314',-1.805
'0:09.316',-1.785
'0:09.318',-1.835
'0:09.320',-1.875
'0:09.322',-1.830
'0:09.324',-1.830
'0:09.326',-1.810
'0:09.328',-1.795
'0:09.330',-1.820
'0:09.332',-1.830
'0:09.334',-1.810
'0:09.336',-1.810
'0:09.338',-1.845
'0:09.340',-1.785
'0:09.342',-1.860
'0:09.344',-1.830
'0:09.346',-1.785
'0:09.348',-1.815
'0:09.350',-1.860
'0:09.352',-1.725
'0:09.354',-1.690
'0:09.356',-1.760
'0:09.358',-1.745
'0:09.360',-1.710
'0:09.362',-1.660
'0:09.364',-1.705
'0:09.366',-1.665
'0:09.368',-1.715
'0:09.370',-1.670
'0:09.372',-1.640
'0:09.374',-1.660
'0:09.376',-1.615
'0:09.378',-1.720
'0:09.380',-1.620
'0:09.382',-1.600
'0:09.384',-1.600
'0:09.386',-1.660
'0:09.388',-1.635
'0:09.390',-1.610
'0:09.392',-1.680
'0:09.394',-1.590
'0:09.396',-1.565
'0:09.398',-1.570
'0:09.400',-1.595
'0:09.402',-1.600
'0:09.404',-1.640
'0:09.406',-1.590
'0:09.408',-1.525
'0:09.410',-1.510
'0:09.412',-1.490
'0:09.414',-1.495
'0:09.416',-1.600
'0:09.418',-1.520
'0:09.420',-1.550
'0:09.422',-1.585
'0:09.424',-1.560
'0:09.426',-1.600
'0:09.428',-1.610
'0:09.430',-1.550
'0:09.432',-1.570
'0:09.434',-1.590
'0:09.436',-1.540
'0:09.438',-1.615
'0:09.440',-1.560
'0:09.442',-1.600
'0:09.444',-1.640
'0:09.446',-1.625
'0:09.448',-1.655
'0:09.450',-1.650
'0:09.452',-1.695
'0:09.454',-1.650
'0:09.456',-1.680
'0:09.458',-1.655
'0:09.460',-1.735
'0:09.462',-1.740
'0:09.464',-1.715
'0:09.466',-1.790
'0:09.468',-1.695
'0:09.470',-1.735
'0:09.472',-1.750
'0:09.474',-1.755
'0:09.476',-1.715
'0:09.478',-1.785
'0:09.480',-1.780
'0:09.482',-1.760
'0:09.484',-1.790
'0:09.486',-1.820
'0:09.488',-1.845
'0:09.490',-1.890
'0:09.492',-1.835
'0:09.494',-1.695
'0:09.496',-1.770
'0:09.498',-1.875
'0:09.500',-1.795
'0:09.502',-1.725
'0:09.504',-1.760
'0:09.506',-1.790
'0:09.508',-1.850
'0:09.510',-1.725
'0:09.512',-1.745
'0:09.514',-1.800
'0:09.516',-1.775
'0:09.518',-1.775
'0:09.520',-1.775
'0:09.522',-1.785
'0:09.524',-1.790
'0:09.526',-1.795
'0:09.528',-1.830
'0:09.530',-1.760
'0:09.532',-1.750
'0:09.534',-1.750
'0:09.536',-1.795
'0:09.538',-1.780
'0:09.540',-1.745
'0:09.542',-1.770
'0:09.544',-1.770
'0:09.546',-1.780
'0:09.548',-1.785
'0:09.550',-1.790
'0:09.552',-1.820
'0:09.554',-1.770
'0:09.556',-1.735
'0:09.558',-1.790
'0:09.560',-1.915
'0:09.562',-1.835
'0:09.564',-1.730
'0:09.566',-1.760
'0:09.568',-1.745
'0:09.570',-1.705
'0:09.572',-1.715
'0:09.574',-1.945
'0:09.576',-1.880
'0:09.578',-1.805
'0:09.580',-1.755
'0:09.582',-1.770
'0:09.584',-1.830
'0:09.586',-1.770
'0:09.588',-1.690
'0:09.590',-1.745
'0:09.592',-1.825
'0:09.594',-1.815
'0:09.596',-1.785
'0:09.598',-1.790
'0:09.600',-1.780
'0:09.602',-1.790
'0:09.604',-1.770
'0:09.606',-1.780
'0:09.608',-1.755
'0:09.610',-1.770
'0:09.612',-1.790
'0:09.614',-1.785
'0:09.616',-1.765
'0:09.618',-1.780
'0:09.620',-1.805
'0:09.622',-1.810
'0:09.624',-1.770
'0:09.626',-1.785
'0:09.628',-1.790
'0:09.630',-1.775
'0:09.632',-1.835
'0:09.634',-1.790
'0:09.636',-1.835
'0:09.638',-1.810
'0:09.640',-1.780
'0:09.642',-1.810
'0:09.644',-1.870
'0:09.646',-1.780
'0:09.648',-1.800
'0:09.650',-1.815
'0:09.652',-1.735
'0:09.654',-1.855
'0:09.656',-2.000
'0:09.658',-1.775
'0:09.660',-1.710
'0:09.662',-1.710
'0:09.664',-1.745
'0:09.666',-1.760
'0:09.668',-1.765
'0:09.670',-1.715
'0:09.672',-1.700
'0:09.674',-1.825
'0:09.676',-1.835
'0:09.678',-1.760
'0:09.680',-1.800
'0:09.682',-1.755
'0:09.684',-1.750
'0:09.686',-1.740
'0:09.688',-1.780
'0:09.690',-1.770
'0:09.692',-1.745
'0:09.694',-1.760
'0:09.696',-1.760
'0:09.698',-1.750
'0:09.700',-1.740
'0:09.702',-1.810
'0:09.704',-1.770
'0:09.706',-1.865
'0:09.708',-1.810
'0:09.710',-1.650
'0:09.712',-1.640
'0:09.714',-1.725
'0:09.716',-1.725
'0:09.718',-1.615
'0:09.720',-1.705
'0:09.722',-1.670
'0:09.724',-1.660
'0:09.726',-1.650
'0:09.728',-1.675
'0:09.730',-1.680
'0:09.732',-1.685
'0:09.734',-1.710
'0:09.736',-1.695
'0:09.738',-1.655
'0:09.740',-1.720
'0:09.742',-1.805
'0:09.744',-1.825
'0:09.746',-1.675
'0:09.748',-1.710
'0:09.750',-1.710
'0:09.752',-1.815
'0:09.754',-1.790
'0:09.756',-1.725
'0:09.758',-1.775
'0:09.760',-1.870
'0:09.762',-1.820
'0:09.764',-1.725
'0:09.766',-1.845
'0:09.768',-1.860
'0:09.770',-1.740
'0:09.772',-1.745
'0:09.774',-1.750
'0:09.776',-1.775
'0:09.778',-1.810
'0:09.780',-1.890
'0:09.782',-1.795
'0:09.784',-1.785
'0:09.786',-1.685
'0:09.788',-1.770
'0:09.790',-1.825
'0:09.792',-1.850
'0:09.794',-1.780
'0:09.796',-1.775
'0:09.798',-1.830
'0:09.800',-1.765
'0:09.802',-1.785
'0:09.804',-1.785
'0:09.806',-1.760
'0:09.808',-1.845
'0:09.810',-1.820
'0:09.812',-1.810
'0:09.814',-1.790
'0:09.816',-1.770
'0:09.818',-1.745
'0:09.820',-1.700
'0:09.822',-1.605
'0:09.824',-1.530
'0:09.826',-1.485
'0:09.828',-1.390
'0:09.830',-1.395
'0:09.832',-1.435
'0:09.834',-1.470
'0:09.836',-1.610
'0:09.838',-1.430
'0:09.840',-1.465
'0:09.842',-1.575
'0:09.844',-1.655
'0:09.846',-1.755
'0:09.848',-1.820
'0:09.850',-1.940
'0:09.852',-1.970
'0:09.854',-1.990
'0:09.856',-2.005
'0:09.858',-2.055
'0:09.860',-2.055
'0:09.862',-2.035
'0:09.864',-2.110
'0:09.866',-2.045
'0:09.868',-1.965
'0:09.870',-2.005
'0:09.872',-1.855
'0:09.874',-1.830
'0:09.876',-1.870
'0:09.878',-1.815
'0:09.880',-1.825
'0:09.882',-1.805
'0:09.884',-1.795
'0:09.886',-1.820
'0:09.888',-1.815
'0:09.890',-1.760
'0:09.892',-1.765
'0:09.894',-1.815
'0:09.896',-1.840
'0:09.898',-1.845
'0:09.900',-1.730
'0:09.902',-1.710
'0:09.904',-1.845
'0:09.906',-1.840
'0:09.908',-1.785
'0:09.910',-1.870
'0:09.912',-1.875
'0:09.914',-1.760
'0:09.916',-1.825
'0:09.918',-1.770
'0:09.920',-1.750
'0:09.922',-1.725
'0:09.924',-1.800
'0:09.926',-1.770
'0:09.928',-1.785
'0:09.930',-1.705
'0:09.932',-1.730
'0:09.934',-1.785
'0:09.936',-1.810
'0:09.938',-1.775
'0:09.940',-1.735
'0:09.942',-1.715
'0:09.944',-1.805
'0:09.946',-1.770
'0:09.948',-1.745
'0:09.950',-1.700
'0:09.952',-1.695
'0:09.954',-1.690
'0:09.956',-1.690
'0:09.958',-1.735
'0:09.960',-1.765
'0:09.962',-1.800
'0:09.964',-1.710
'0:09.966',-1.695
'0:09.968',-1.695
'0:09.970',-1.660
'0:09.972',-1.745
'0:09.974',-1.750
'0:09.976',-1.640
'0:09.978',-1.670
'0:09.980',-1.645
'0:09.982',-1.660
'0:09.984',-1.655
'0:09.986',-1.615
'0:09.988',-1.680
'0:09.990',-1.610
'0:09.992',-1.555
'0:09.994',-1.585
'0:09.996',-1.595
'0:09.998',-1.565
'0:10.000',-1.550
'0:10.002',-1.560
'0:10.004',-1.500
'0:10.006',-1.530
'0:10.008',-1.520
'0:10.010',-1.520
'0:10.012',-1.500
'0:10.014',-1.475
'0:10.016',-1.485
'0:10.018',-1.555
'0:10.020',-1.500
'0:10.022',-1.450
'0:10.024',-1.470
'0:10.026',-1.455
'0:10.028',-1.405
'0:10.030',-1.500
'0:10.032',-1.460
'0:10.034',-1.425
'0:10.036',-1.440
'0:10.038',-1.550
'0:10.040',-1.455
'0:10.042',-1.450
'0:10.044',-1.480
'0:10.046',-1.445
'0:10.048',-1.385
'0:10.050',-1.415
'0:10.052',-1.430
'0:10.054',-1.530
'0:10.056',-1.490
'0:10.058',-1.490
'0:10.060',-1.505
'0:10.062',-1.530
'0:10.064',-1.560
'0:10.066',-1.580
'0:10.068',-1.565
'0:10.070',-1.525
'0:10.072',-1.640
'0:10.074',-1.655
'0:10.076',-1.575
'0:10.078',-1.640
'0:10.080',-1.655
'0:10.082',-1.595
'0:10.084',-1.595
'0:10.086',-1.685
'0:10.088',-1.740
'0:10.090',-1.710
'0:10.092',-1.645
'0:10.094',-1.640
'0:10.096',-1.640
'0:10.098',-1.700
'0:10.100',-1.645
'0:10.102',-1.630
'0:10.104',-1.675
'0:10.106',-1.760
'0:10.108',-1.695
'0:10.110',-1.730
'0:10.112',-1.765
'0:10.114',-1.720
'0:10.116',-1.720
'0:10.118',-1.660
'0:10.120',-1.680
'0:10.122',-1.655
'0:10.124',-1.720
'0:10.126',-1.720
'0:10.128',-1.705
'0:10.130',-1.710
'0:10.132',-1.675
'0:10.134',-1.615
'0:10.136',-1.650
'0:10.138',-1.710
'0:10.140',-1.750
'0:10.142',-1.700
'0:10.144',-1.695
'0:10.146',-1.725
'0:10.148',-1.670
'0:10.150',-1.755
'0:10.152',-1.705
'0:10.154',-1.740
'0:10.156',-1.670
'0:10.158',-1.690
'0:10.160',-1.655
'0:10.162',-1.665
'0:10.164',-1.690
'0:10.166',-1.585
'0:10.168',-1.675
'0:10.170',-1.790
'0:10.172',-1.685
'0:10.174',-1.625
'0:10.176',-1.725
'0:10.178',-1.680
'0:10.180',-1.670
'0:10.182',-1.680
'0:10.184',-1.710
'0:10.186',-1.640
'0:10.188',-1.730
'0:10.190',-1.680
'0:10.192',-1.685
'0:10.194',-1.650
'0:10.196',-1.685
'0:10.198',-1.785
'0:10.200',-1.695
'0:10.202',-1.650
'0:10.204',-1.660
'0:10.206',-1.700
'0:10.208',-1.685
'0:10.210',-1.695
'0:10.212',-1.680
'0:10.214',-1.715
'0:10.216',-1.670
'0:10.218',-1.715
'0:10.220',-1.645
'0:10.222',-1.625
'0:10.224',-1.690
'0:10.226',-1.830
'0:10.228',-1.785
'0:10.230',-1.660
'0:10.232',-1.715
'0:10.234',-1.755
'0:10.236',-1.655
'0:10.238',-1.660
'0:10.240',-1.705
'0:10.242',-1.680
'0:10.244',-1.815
'0:10.246',-1.740
'0:10.248',-1.725
'0:10.250',-1.640
'0:10.252',-1.635
'0:10.254',-1.730
'0:10.256',-1.685
'0:10.258',-1.685
'0:10.260',-1.660
'0:10.262',-1.675
'0:10.264',-1.670
'0:10.266',-1.660
'0:10.268',-1.700
'0:10.270',-1.710
'0:10.272',-1.740
'0:10.274',-1.715
'0:10.276',-1.735
'0:10.278',-1.695
'0:10.280',-1.675
'0:10.282',-1.790
'0:10.284',-1.720
'0:10.286',-1.765
'0:10.288',-1.750
'0:10.290',-1.755
'0:10.292',-1.665
'0:10.294',-1.740
'0:10.296',-1.725
'0:10.298',-1.640
'0:10.300',-1.675
'0:10.302',-1.650
'0:10.304',-1.710
'0:10.306',-1.720
'0:10.308',-1.760
'0:10.310',-1.700
'0:10.312',-1.615
'0:10.314',-1.665
'0:10.316',-1.675
'0:10.318',-1.690
'0:10.320',-1.610
'0:10.322',-1.650
'0:10.324',-1.625
'0:10.326',-1.620
'0:10.328',-1.595
'0:10.330',-1.660
'0:10.332',-1.685
'0:10.334',-1.645
'0:10.336',-1.590
'0:10.338',-1.590
'0:10.340',-1.615
'0:10.342',-1.690
'0:10.344',-1.560
'0:10.346',-1.495
'0:10.348',-1.585
'0:10.350',-1.645
'0:10.352',-1.585
'0:10.354',-1.600
'0:10.356',-1.620
'0:10.358',-1.610
'0:10.360',-1.605
'0:10.362',-1.520
'0:10.364',-1.550
'0:10.366',-1.615
'0:10.368',-1.645
'0:10.370',-1.705
'0:10.372',-1.670
'0:10.374',-1.690
'0:10.376',-1.770
'0:10.378',-1.650
'0:10.380',-1.675
'0:10.382',-1.835
'0:10.384',-1.720
'0:10.386',-1.705
'0:10.388',-1.740
'0:10.390',-1.690
'0:10.392',-1.625
'0:10.394',-1.705
'0:10.396',-1.685
'0:10.398',-1.665
'0:10.400',-1.675
'0:10.402',-1.685
'0:10.404',-1.690
'0:10.406',-1.700
'0:10.408',-1.760
'0:10.410',-1.735
'0:10.412',-1.695
'0:10.414',-1.655
'0:10.416',-1.730
'0:10.418',-1.760
'0:10.420',-1.660
'0:10.422',-1.735
'0:10.424',-1.740
'0:10.426',-1.745
'0:10.428',-1.700
'0:10.430',-1.705
'0:10.432',-1.745
'0:10.434',-1.795
'0:10.436',-1.790
'0:10.438',-1.800
'0:10.440',-1.715
'0:10.442',-1.690
'0:10.444',-1.615
'0:10.446',-1.465
'0:10.448',-1.410
'0:10.450',-1.350
'0:10.452',-1.210
'0:10.454',-1.260
'0:10.456',-1.465
'0:10.458',-1.225
'0:10.460',-1.260
'0:10.462',-1.355
'0:10.464',-1.390
'0:10.466',-1.495
'0:10.468',-1.605
'0:10.470',-1.765
'0:10.472',-1.840
'0:10.474',-1.880
'0:10.476',-1.955
'0:10.478',-1.990
'0:10.480',-2.000
'0:10.482',-2.095
'0:10.484',-2.000
'0:10.486',-1.890
'0:10.488',-1.940
'0:10.490',-2.000
'0:10.492',-1.880
'0:10.494',-1.920
'0:10.496',-1.800
'0:10.498',-1.800
'0:10.500',-1.765
'0:10.502',-1.740
'0:10.504',-1.720
'0:10.506',-1.735
'0:10.508',-1.715
'0:10.510',-1.735
'0:10.512',-1.660
'0:10.514',-1.700
'0:10.516',-1.740
'0:10.518',-1.705
'0:10.520',-1.730
'0:10.522',-1.775
'0:10.524',-1.730
'0:10.526',-1.745
'0:10.528',-1.715
'0:10.530',-1.785
'0:10.532',-1.710
'0:10.534',-1.700
'0:10.536',-1.795
'0:10.538',-1.820
'0:10.540',-1.695
'0:10.542',-1.700
'0:10.544',-1.700
'0:10.546',-1.650
'0:10.548',-1.700
'0:10.550',-1.705
'0:10.552',-1.620
'0:10.554',-1.665
'0:10.556',-1.715
'0:10.558',-1.820
'0:10.560',-1.780
'0:10.562',-1.730
'0:10.564',-1.670
'0:10.566',-1.695
'0:10.568',-1.660
'0:10.570',-1.640
'0:10.572',-1.585
'0:10.574',-1.680
'0:10.576',-1.685
'0:10.578',-1.585
'0:10.580',-1.605
'0:10.582',-1.600
'0:10.584',-1.580
'0:10.586',-1.565
'0:10.588',-1.600
'0:10.590',-1.665
'0:10.592',-1.715
'0:10.594',-1.600
'0:10.596',-1.655
'0:10.598',-1.625
'0:10.600',-1.615
'0:10.602',-1.560
'0:10.604',-1.560
'0:10.606',-1.565
'0:10.608',-1.520
'0:10.610',-1.590
'0:10.612',-1.520
'0:10.614',-1.460
'0:10.616',-1.510
'0:10.618',-1.545
'0:10.620',-1.485
'0:10.622',-1.500
'0:10.624',-1.470
'0:10.626',-1.485
'0:10.628',-1.460
'0:10.630',-1.445
'0:10.632',-1.500
'0:10.634',-1.470
'0:10.636',-1.470
'0:10.638',-1.435
'0:10.640',-1.360
'0:10.642',-1.400
'0:10.644',-1.430
'0:10.646',-1.350
'0:10.648',-1.295
'0:10.650',-1.395
'0:10.652',-1.415
'0:10.654',-1.380
'0:10.656',-1.395
'0:10.658',-1.430
'0:10.660',-1.340
'0:10.662',-1.325
'0:10.664',-1.340
'0:10.666',-1.285
'0:10.668',-1.410
'0:10.670',-1.420
'0:10.672',-1.360
'0:10.674',-1.385
'0:10.676',-1.405
'0:10.678',-1.435
'0:10.680',-1.420
'0:10.682',-1.430
'0:10.684',-1.410
'0:10.686',-1.460
'0:10.688',-1.460
'0:10.690',-1.490
'0:10.692',-1.490
'0:10.694',-1.520
'0:10.696',-1.575
'0:10.698',-1.485
'0:10.700',-1.545
'0:10.702',-1.575
'0:10.704',-1.600
'0:10.706',-1.550
'0:10.708',-1.610
'0:10.710',-1.645
'0:10.712',-1.635
'0:10.714',-1.585
'0:10.716',-1.585
'0:10.718',-1.610
'0:10.720',-1.525
'0:10.722',-1.575
'0:10.724',-1.580
'0:10.726',-1.635
'0:10.728',-1.665
'0:10.730',-1.620
'0:10.732',-1.620
'0:10.734',-1.610
'0:10.736',-1.580
'0:10.738',-1.575
'0:10.740',-1.660
'0:10.742',-1.645
'0:10.744',-1.685
'0:10.746',-1.680
'0:10.748',-1.795
'0:10.750',-1.635
'0:10.752',-1.610
'0:10.754',-1.605
'0:10.756',-1.590
'0:10.758',-1.560
'0:10.760',-1.640
'0:10.762',-1.680
'0:10.764',-1.630
'0:10.766',-1.645
'0:10.768',-1.575
'0:10.770',-1.590
'0:10.772',-1.650
'0:10.774',-1.655
'0:10.776',-1.680
'0:10.778',-1.600
'0:10.780',-1.630
'0:10.782',-1.620
'0:10.784',-1.590
'0:10.786',-1.635
'0:10.788',-1.665
'0:10.790',-1.615
'0:10.792',-1.655
'0:10.794',-1.690
'0:10.796',-1.675
'0:10.798',-1.705
'0:10.800',-1.645
'0:10.802',-1.605
'0:10.804',-1.625
'0:10.806',-1.630
'0:10.808',-1.630
'0:10.810',-1.585
'0:10.812',-1.660
'0:10.814',-1.685
'0:10.816',-1.655
'0:10.818',-1.650
'0:10.820',-1.650
'0:10.822',-1.665
'0:10.824',-1.640
'0:10.826',-1.635
'0:10.828',-1.650
'0:10.830',-1.605
'0:10.832',-1.605
'0:10.834',-1.630
'0:10.836',-1.635
'0:10.838',-1.600
'0:10.840',-1.680
'0:10.842',-1.610
'0:10.844',-1.625
'0:10.846',-1.675
'0:10.848',-1.730
'0:10.850',-1.670
'0:10.852',-1.685
'0:10.854',-1.655
'0:10.856',-1.675
'0:10.858',-1.655
'0:10.860',-1.660
'0:10.862',-1.660
'0:10.864',-1.630
'0:10.866',-1.670
'0:10.868',-1.630
'0:10.870',-1.660
'0:10.872',-1.625
'0:10.874',-1.670
'0:10.876',-1.680
'0:10.878',-1.690
'0:10.880',-1.690
'0:10.882',-1.630
'0:10.884',-1.620
'0:10.886',-1.640
'0:10.888',-1.710
'0:10.890',-1.665
'0:10.892',-1.665
'0:10.894',-1.700
'0:10.896',-1.655
'0:10.898',-1.620
'0:10.900',-1.625
'0:10.902',-1.670
'0:10.904',-1.710
'0:10.906',-1.685
'0:10.908',-1.605
'0:10.910',-1.645
'0:10.912',-1.645
'0:10.914',-1.590
'0:10.916',-1.680
'0:10.918',-1.620
'0:10.920',-1.610
'0:10.922',-1.630
'0:10.924',-1.630
'0:10.926',-1.610
'0:10.928',-1.660
'0:10.930',-1.595
'0:10.932',-1.555
'0:10.934',-1.580
'0:10.936',-1.555
'0:10.938',-1.540
'0:10.940',-1.520
'0:10.942',-1.605
'0:10.944',-1.615
'0:10.946',-1.625
'0:10.948',-1.555
'0:10.950',-1.605
'0:10.952',-1.645
'0:10.954',-1.615
'0:10.956',-1.645
'0:10.958',-1.630
'0:10.960',-1.625
'0:10.962',-1.660
'0:10.964',-1.740
'0:10.966',-1.605
'0:10.968',-1.645
'0:10.970',-1.725
'0:10.972',-1.615
'0:10.974',-1.600
'0:10.976',-1.700
'0:10.978',-1.755
'0:10.980',-1.675
'0:10.982',-1.640
'0:10.984',-1.650
'0:10.986',-1.710
'0:10.988',-1.710
'0:10.990',-1.645
'0:10.992',-1.720
'0:10.994',-1.755
'0:10.996',-1.715
'0:10.998',-1.705
'0:11.000',-1.675
'0:11.002',-1.640
'0:11.004',-1.635
'0:11.006',-1.640
'0:11.008',-1.690
'0:11.010',-1.715
'0:11.012',-1.680
'0:11.014',-1.650
'0:11.016',-1.645
'0:11.018',-1.620
'0:11.020',-1.685
'0:11.022',-1.685
'0:11.024',-1.685
'0:11.026',-1.710
'0:11.028',-1.720
'0:11.030',-1.690
'0:11.032',-1.660
'0:11.034',-1.600
'0:11.036',-1.475
'0:11.038',-1.375
'0:11.040',-1.435
'0:11.042',-1.360
'0:11.044',-1.355
'0:11.046',-1.400
'0:11.048',-1.435
'0:11.050',-1.400
'0:11.052',-1.405
'0:11.054',-1.415
'0:11.056',-1.600
'0:11.058',-1.605
'0:11.060',-1.645
'0:11.062',-1.810
'0:11.064',-1.800
'0:11.066',-1.820
'0:11.068',-1.900
'0:11.070',-1.925
'0:11.072',-1.890
'0:11.074',-1.860
'0:11.076',-1.930
'0:11.078',-1.955
'0:11.080',-1.885
'0:11.082',-1.905
'0:11.084',-1.735
'0:11.086',-1.765
'0:11.088',-1.745
'0:11.090',-1.780
'0:11.092',-1.745
'0:11.094',-1.675
'0:11.096',-1.685
'0:11.098',-1.680
'0:11.100',-1.660
'0:11.102',-1.650
'0:11.104',-1.700
'0:11.106',-1.705
'0:11.108',-1.740
'0:11.110',-1.725
'0:11.112',-1.660
'0:11.114',-1.600
'0:11.116',-1.780
'0:11.118',-1.705
'0:11.120',-1.595
'0:11.122',-1.595
'0:11.124',-1.605
'0:11.126',-1.605
'0:11.128',-1.615
'0:11.130',-1.650
'0:11.132',-1.650
'0:11.134',-1.685
'0:11.136',-1.615
'0:11.138',-1.660
'0:11.140',-1.660
'0:11.142',-1.580
'0:11.144',-1.585
'0:11.146',-1.635
'0:11.148',-1.600
'0:11.150',-1.620
'0:11.152',-1.625
'0:11.154',-1.640
'0:11.156',-1.660
'0:11.158',-1.610
'0:11.160',-1.590
'0:11.162',-1.520
'0:11.164',-1.615
'0:11.166',-1.560
'0:11.168',-1.650
'0:11.170',-1.645
'0:11.172',-1.680
'0:11.174',-1.655
'0:11.176',-1.505
'0:11.178',-1.490
'0:11.180',-1.510
'0:11.182',-1.540
'0:11.184',-1.515
'0:11.186',-1.545
'0:11.188',-1.525
'0:11.190',-1.545
'0:11.192',-1.580
'0:11.194',-1.585
'0:11.196',-1.535
'0:11.198',-1.495
'0:11.200',-1.515
'0:11.202',-1.550
'0:11.204',-1.495
'0:11.206',-1.480
'0:11.208',-1.435
'0:11.210',-1.450
'0:11.212',-1.455
'0:11.214',-1.410
'0:11.216',-1.390
'0:11.218',-1.465
'0:11.220',-1.425
'0:11.222',-1.395
'0:11.224',-1.490
'0:11.226',-1.495
'0:11.228',-1.330
'0:11.230',-1.285
'0:11.232',-1.240
'0:11.234',-1.365
'0:11.236',-1.400
'0:11.238',-1.370
'0:11.240',-1.325
'0:11.242',-1.340
'0:11.244',-1.395
'0:11.246',-1.340
'0:11.248',-1.310
'0:11.250',-1.420
'0:11.252',-1.360
'0:11.254',-1.360
'0:11.256',-1.415
'0:11.258',-1.345
'0:11.260',-1.300
'0:11.262',-1.390
'0:11.264',-1.400
'0:11.266',-1.315
'0:11.268',-1.345
'0:11.270',-1.485
'0:11.272',-1.550
'0:11.274',-1.485
'0:11.276',-1.425
'0:11.278',-1.405
'0:11.280',-1.425
'0:11.282',-1.465
'0:11.284',-1.495
'0:11.286',-1.470
'0:11.288',-1.470
'0:11.290',-1.525
'0:11.292',-1.565
'0:11.294',-1.540
'0:11.296',-1.565
'0:11.298',-1.525
'0:11.300',-1.510
'0:11.302',-1.625
'0:11.304',-1.480
'0:11.306',-1.510
'0:11.308',-1.575
'0:11.310',-1.545
'0:11.312',-1.545
'0:11.314',-1.570
'0:11.316',-1.625
'0:11.318',-1.580
'0:11.320',-1.560
'0:11.322',-1.635
'0:11.324',-1.600
'0:11.326',-1.580
'0:11.328',-1.565
'0:11.330',-1.650
'0:11.332',-1.670
'0:11.334',-1.660
'0:11.336',-1.615
'0:11.338',-1.650
'0:11.340',-1.660
'0:11.342',-1.555
'0:11.344',-1.605
'0:11.346',-1.570
'0:11.348',-1.530
'0:11.350',-1.585
'0:11.352',-1.570
'0:11.354',-1.630
'0:11.356',-1.590
'0:11.358',-1.580
'0:11.360',-1.590
'0:11.362',-1.550
'0:11.364',-1.620
'0:11.366',-1.600
'0:11.368',-1.545
'0:11.370',-1.510
'0:11.372',-1.550
'0:11.374',-1.570
'0:11.376',-1.580
'0:11.378',-1.595
'0:11.380',-1.560
'0:11.382',-1.565
'0:11.384',-1.590
'0:11.386',-1.545
'0:11.388',-1.625
'0:11.390',-1.710
'0:11.392',-1.610
'0:11.394',-1.580
'0:11.396',-1.610
'0:11.398',-1.530
'0:11.400',-1.545
'0:11.402',-1.595
'0:11.404',-1.595
'0:11.406',-1.520
'0:11.408',-1.580
'0:11.410',-1.590
'0:11.412',-1.640
'0:11.414',-1.545
'0:11.416',-1.595
'0:11.418',-1.625
'0:11.420',-1.590
'0:11.422',-1.545
'0:11.424',-1.615
'0:11.426',-1.580
'0:11.428',-1.570
'0:11.430',-1.685
'0:11.432',-1.570
'0:11.434',-1.565
'0:11.436',-1.565
'0:11.438',-1.635
'0:11.440',-1.575
'0:11.442',-1.635
'0:11.444',-1.565
'0:11.446',-1.505
'0:11.448',-1.590
'0:11.450',-1.590
'0:11.452',-1.660
'0:11.454',-1.540
'0:11.456',-1.565
'0:11.458',-1.570
'0:11.460',-1.590
'0:11.462',-1.640
'0:11.464',-1.615
'0:11.466',-1.570
'0:11.468',-1.585
'0:11.470',-1.570
'0:11.472',-1.515
'0:11.474',-1.610
'0:11.476',-1.645
'0:11.478',-1.620
'0:11.480',-1.635
'0:11.482',-1.555
'0:11.484',-1.540
'0:11.486',-1.545
'0:11.488',-1.555
'0:11.490',-1.550
'0:11.492',-1.515
'0:11.494',-1.490
'0:11.496',-1.460
'0:11.498',-1.535
'0:11.500',-1.515
'0:11.502',-1.525
'0:11.504',-1.510
'0:11.506',-1.510
'0:11.508',-1.525
'0:11.510',-1.495
'0:11.512',-1.485
'0:11.514',-1.535
'0:11.516',-1.520
'0:11.518',-1.435
'0:11.520',-1.440
'0:11.522',-1.445
'0:11.524',-1.585
'0:11.526',-1.670
'0:11.528',-1.605
'0:11.530',-1.595
'0:11.532',-1.625
'0:11.534',-1.540
'0:11.536',-1.545
'0:11.538',-1.580
'0:11.540',-1.605
'0:11.542',-1.615
'0:11.544',-1.645
'0:11.546',-1.600
'0:11.548',-1.565
'0:11.550',-1.550
'0:11.552',-1.585
'0:11.554',-1.575
'0:11.556',-1.605
'0:11.558',-1.575
'0:11.560',-1.595
'0:11.562',-1.565
'0:11.564',-1.605
'0:11.566',-1.580
'0:11.568',-1.600
'0:11.570',-1.560
'0:11.572',-1.595
'0:11.574',-1.595
'0:11.576',-1.615
'0:11.578',-1.565
'0:11.580',-1.530
'0:11.582',-1.550
'0:11.584',-1.615
'0:11.586',-1.535
'0:11.588',-1.625
'0:11.590',-1.615
'0:11.592',-1.660
'0:11.594',-1.630
'0:11.596',-1.615
'0:11.598',-1.615
'0:11.600',-1.630
'0:11.602',-1.660
'0:11.604',-1.620
'0:11.606',-1.475
'0:11.608',-1.380
'0:11.610',-1.390
'0:11.612',-1.325
'0:11.614',-1.190
'0:11.616',-1.285
'0:11.618',-1.255
'0:11.620',-1.270
'0:11.622',-1.250
'0:11.624',-1.290
'0:11.626',-1.335
'0:11.628',-1.375
'0:11.630',-1.445
'0:11.632',-1.600
'0:11.634',-1.700
'0:11.636',-1.740
'0:11.638',-1.780
'0:11.640',-1.765
'0:11.642',-1.845
'0:11.644',-1.805
'0:11.646',-1.810
'0:11.648',-1.830
'0:11.650',-1.830
'0:11.652',-1.875
'0:11.654',-1.805
'0:11.656',-1.695
'0:11.658',-1.625
'0:11.660',-1.655
'0:11.662',-1.660
'0:11.664',-1.595
'0:11.666',-1.640
'0:11.668',-1.660
'0:11.670',-1.605
'0:11.672',-1.585
'0:11.674',-1.580
'0:11.676',-1.600
'0:11.678',-1.535
'0:11.680',-1.520
'0:11.682',-1.610
'0:11.684',-1.590
'0:11.686',-1.665
'0:11.688',-1.530
'0:11.690',-1.590
'0:11.692',-1.530
'0:11.694',-1.660
'0:11.696',-1.675
'0:11.698',-1.455
'0:11.700',-1.490
'0:11.702',-1.535
'0:11.704',-1.510
'0:11.706',-1.535
'0:11.708',-1.540
'0:11.710',-1.545
'0:11.712',-1.515
'0:11.714',-1.495
'0:11.716',-1.545
'0:11.718',-1.505
'0:11.720',-1.525
'0:11.722',-1.535
'0:11.724',-1.550
'0:11.726',-1.530
'0:11.728',-1.565
'0:11.730',-1.565
'0:11.732',-1.490
'0:11.734',-1.485
'0:11.736',-1.545
'0:11.738',-1.545
'0:11.740',-1.410
'0:11.742',-1.495
'0:11.744',-1.550
'0:11.746',-1.480
'0:11.748',-1.445
'0:11.750',-1.480
'0:11.752',-1.455
'0:11.754',-1.390
'0:11.756',-1.440
'0:11.758',-1.480
'0:11.760',-1.430
'0:11.762',-1.370
'0:11.764',-1.440
'0:11.766',-1.480
'0:11.768',-1.480
'0:11.770',-1.355
'0:11.772',-1.475
'0:11.774',-1.365
'0:11.776',-1.315
'0:11.778',-1.350
'0:11.780',-1.330
'0:11.782',-1.335
'0:11.784',-1.325
'0:11.786',-1.310
'0:11.788',-1.280
'0:11.790',-1.285
'0:11.792',-1.295
'0:11.794',-1.255
'0:11.796',-1.195
'0:11.798',-1.225
'0:11.800',-1.250
'0:11.802',-1.270
'0:11.804',-1.250
'0:11.806',-1.310
'0:11.808',-1.290
'0:11.810',-1.210
'0:11.812',-1.260
'0:11.814',-1.260
'0:11.816',-1.285
'0:11.818',-1.215
'0:11.820',-1.185
'0:11.822',-1.230
'0:11.824',-1.180
'0:11.826',-1.225
'0:11.828',-1.305
'0:11.830',-1.305
'0:11.832',-1.220
'0:11.834',-1.245
'0:11.836',-1.225
'0:11.838',-1.245
'0:11.840',-1.325
'0:11.842',-1.260
'0:11.844',-1.240
'0:11.846',-1.310
'0:11.848',-1.360
'0:11.850',-1.420
'0:11.852',-1.365
'0:11.854',-1.305
'0:11.856',-1.360
'0:11.858',-1.295
'0:11.860',-1.320
'0:11.862',-1.395
'0:11.864',-1.455
'0:11.866',-1.390
'0:11.868',-1.415
'0:11.870',-1.440
'0:11.872',-1.475
'0:11.874',-1.470
'0:11.876',-1.385
'0:11.878',-1.440
'0:11.880',-1.555
'0:11.882',-1.580
'0:11.884',-1.440
'0:11.886',-1.435
'0:11.888',-1.425
'0:11.890',-1.455
'0:11.892',-1.440
'0:11.894',-1.445
'0:11.896',-1.460
'0:11.898',-1.435
'0:11.900',-1.470
'0:11.902',-1.470
'0:11.904',-1.490
'0:11.906',-1.465
'0:11.908',-1.420
'0:11.910',-1.480
'0:11.912',-1.535
'0:11.914',-1.525
'0:11.916',-1.420
'0:11.918',-1.455
'0:11.920',-1.485
'0:11.922',-1.480
'0:11.924',-1.555
'0:11.926',-1.565
'0:11.928',-1.430
'0:11.930',-1.450
'0:11.932',-1.455
'0:11.934',-1.440
'0:11.936',-1.455
'0:11.938',-1.475
'0:11.940',-1.460
'0:11.942',-1.435
'0:11.944',-1.485
'0:11.946',-1.500
'0:11.948',-1.515
'0:11.950',-1.530
'0:11.952',-1.455
'0:11.954',-1.430
'0:11.956',-1.420
'0:11.958',-1.430
'0:11.960',-1.460
'0:11.962',-1.555
'0:11.964',-1.420
'0:11.966',-1.485
'0:11.968',-1.520
'0:11.970',-1.480
'0:11.972',-1.430
'0:11.974',-1.460
'0:11.976',-1.455
'0:11.978',-1.450
'0:11.980',-1.435
'0:11.982',-1.415
'0:11.984',-1.480
'0:11.986',-1.445
'0:11.988',-1.450
'0:11.990',-1.465
'0:11.992',-1.455
'0:11.994',-1.520
'0:11.996',-1.540
'0:11.998',-1.510
'0:12.000',-1.425
'0:12.002',-1.540
'0:12.004',-1.515
'0:12.006',-1.460
'0:12.008',-1.455
'0:12.010',-1.415
'0:12.012',-1.450
'0:12.014',-1.540
'0:12.016',-1.445
'0:12.018',-1.505
'0:12.020',-1.485
'0:12.022',-1.480
'0:12.024',-1.450
'0:12.026',-1.510
'0:12.028',-1.425
'0:12.030',-1.400
'0:12.032',-1.485
'0:12.034',-1.450
'0:12.036',-1.450
'0:12.038',-1.490
'0:12.040',-1.525
'0:12.042',-1.525
'0:12.044',-1.430
'0:12.046',-1.445
'0:12.048',-1.495
'0:12.050',-1.465
'0:12.052',-1.440
'0:12.054',-1.445
'0:12.056',-1.480
'0:12.058',-1.500
'0:12.060',-1.465
'0:12.062',-1.475
'0:12.064',-1.465
'0:12.066',-1.445
'0:12.068',-1.460
'0:12.070',-1.515
'0:12.072',-1.570
'0:12.074',-1.520
'0:12.076',-1.460
'0:12.078',-1.490
'0:12.080',-1.440
'0:12.082',-1.445
'0:12.084',-1.435
'0:12.086',-1.480
'0:12.088',-1.440
'0:12.090',-1.425
'0:12.092',-1.470
'0:12.094',-1.435
'0:12.096',-1.445
'0:12.098',-1.485
'0:12.100',-1.480
'0:12.102',-1.495
'0:12.104',-1.475
'0:12.106',-1.490
'0:12.108',-1.420
'0:12.110',-1.495
'0:12.112',-1.500
'0:12.114',-1.490
'0:12.116',-1.440
'0:12.118',-1.395
'0:12.120',-1.490
'0:12.122',-1.440
'0:12.124',-1.470
'0:12.126',-1.470
'0:12.128',-1.445
'0:12.130',-1.425
'0:12.132',-1.450
'0:12.134',-1.475
'0:12.136',-1.455
'0:12.138',-1.480
'0:12.140',-1.485
'0:12.142',-1.400
'0:12.144',-1.390
'0:12.146',-1.550
'0:12.148',-1.490
'0:12.150',-1.380
'0:12.152',-1.315
'0:12.154',-1.415
'0:12.156',-1.385
'0:12.158',-1.435
'0:12.160',-1.410
'0:12.162',-1.395
'0:12.164',-1.405
'0:12.166',-1.370
'0:12.168',-1.390
'0:12.170',-1.380
'0:12.172',-1.400
'0:12.174',-1.340
'0:12.176',-1.410
'0:12.178',-1.375
'0:12.180',-1.395
'0:12.182',-1.295
'0:12.184',-1.375
'0:12.186',-1.370
'0:12.188',-1.355
'0:12.190',-1.340
'0:12.192',-1.345
'0:12.194',-1.335
'0:12.196',-1.340
'0:12.198',-1.330
'0:12.200',-1.410
'0:12.202',-1.410
'0:12.204',-1.405
'0:12.206',-1.395
'0:12.208',-1.435
'0:12.210',-1.440
'0:12.212',-1.455
'0:12.214',-1.470
'0:12.216',-1.505
'0:12.218',-1.510
'0:12.220',-1.455
'0:12.222',-1.410
'0:12.224',-1.420
'0:12.226',-1.470
'0:12.228',-1.440
'0:12.230',-1.450
'0:12.232',-1.445
'0:12.234',-1.430
'0:12.236',-1.390
'0:12.238',-1.450
'0:12.240',-1.480
'0:12.242',-1.385
'0:12.244',-1.415
'0:12.246',-1.580
'0:12.248',-1.510
'0:12.250',-1.460
'0:12.252',-1.380
'0:12.254',-1.445
'0:12.256',-1.405
'0:12.258',-1.375
'0:12.260',-1.390
'0:12.262',-1.420
'0:12.264',-1.500
'0:12.266',-1.495
'0:12.268',-1.485
'0:12.270',-1.450
'0:12.272',-1.415
'0:12.274',-1.420
'0:12.276',-1.345
'0:12.278',-1.255
'0:12.280',-1.205
'0:12.282',-1.185
'0:12.284',-1.185
'0:12.286',-1.085
'0:12.288',-1.075
'0:12.290',-1.180
'0:12.292',-1.080
'0:12.294',-1.085
'0:12.296',-1.205
'0:12.298',-1.310
'0:12.300',-1.370
'0:12.302',-1.465
'0:12.304',-1.565
'0:12.306',-1.605
'0:12.308',-1.635
'0:12.310',-1.660
'0:12.312',-1.690
'0:12.314',-1.595
'0:12.316',-1.690
'0:12.318',-1.625
'0:12.320',-1.685
'0:12.322',-1.630
'0:12.324',-1.590
'0:12.326',-1.535
'0:12.328',-1.545
'0:12.330',-1.555
'0:12.332',-1.515
'0:12.334',-1.470
'0:12.336',-1.450
'0:12.338',-1.430
'0:12.340',-1.435
'0:12.342',-1.455
'0:12.344',-1.485
'0:12.346',-1.455
'0:12.348',-1.380
'0:12.350',-1.405
'0:12.352',-1.465
'0:12.354',-1.420
'0:12.356',-1.425
'0:12.358',-1.455
'0:12.360',-1.420
'0:12.362',-1.415
'0:12.364',-1.415
'0:12.366',-1.455
'0:12.368',-1.465
'0:12.370',-1.395
'0:12.372',-1.380
'0:12.374',-1.355
'0:12.376',-1.390
'0:12.378',-1.415
'0:12.380',-1.400
'0:12.382',-1.445
'0:12.384',-1.435
'0:12.386',-1.385
'0:12.388',-1.465
'0:12.390',-1.415
'0:12.392',-1.365
'0:12.394',-1.415
'0:12.396',-1.440
'0:12.398',-1.380
'0:12.400',-1.425
'0:12.402',-1.390
'0:12.404',-1.375
'0:12.406',-1.355
'0:12.408',-1.325
'0:12.410',-1.265
'0:12.412',-1.285
'0:12.414',-1.425
'0:12.416',-1.345
'0:12.418',-1.355
'0:12.420',-1.355
'0:12.422',-1.330
'0:12.424',-1.310
'0:12.426',-1.320
'0:12.428',-1.345
'0:12.430',-1.335
'0:12.432',-1.290
'0:12.434',-1.325
'0:12.436',-1.250
'0:12.438',-1.235
'0:12.440',-1.325
'0:12.442',-1.305
'0:12.444',-1.275
'0:12.446',-1.255
'0:12.448',-1.245
'0:12.450',-1.255
'0:12.452',-1.175
'0:12.454',-1.200
'0:12.456',-1.235
'0:12.458',-1.215
'0:12.460',-1.175
'0:12.462',-1.175
'0:12.464',-1.155
'0:12.466',-1.170
'0:12.468',-1.140
'0:12.470',-1.125
'0:12.472',-1.095
'0:12.474',-1.140
'0:12.476',-1.275
'0:12.478',-1.190
'0:12.480',-1.125
'0:12.482',-1.150
'0:12.484',-1.135
'0:12.486',-1.125
'0:12.488',-1.055
'0:12.490',-1.025
'0:12.492',-1.115
'0:12.494',-1.045
'0:12.496',-1.125
'0:12.498',-1.145
'0:12.500',-1.135
'0:12.502',-1.115
'0:12.504',-1.120
'0:12.506',-1.160
'0:12.508',-1.125
'0:12.510',-1.085
'0:12.512',-1.075
'0:12.514',-1.105
'0:12.516',-1.205
'0:12.518',-1.205
'0:12.520',-1.145
'0:12.522',-1.165
'0:12.524',-1.185
'0:12.526',-1.195
'0:12.528',-1.245
'0:12.530',-1.290
'0:12.532',-1.310
'0:12.534',-1.250
'0:12.536',-1.210
'0:12.538',-1.225
'0:12.540',-1.280
'0:12.542',-1.345
'0:12.544',-1.270
'0:12.546',-1.265
'0:12.548',-1.245
'0:12.550',-1.300
'0:12.552',-1.275
'0:12.554',-1.345
'0:12.556',-1.295
'0:12.558',-1.255
'0:12.560',-1.375
'0:12.562',-1.425
'0:12.564',-1.340
'0:12.566',-1.355
'0:12.568',-1.275
'0:12.570',-1.345
'0:12.572',-1.280
'0:12.574',-1.300
'0:12.576',-1.315
'0:12.578',-1.355
'0:12.580',-1.315
'0:12.582',-1.355
'0:12.584',-1.315
'0:12.586',-1.310
'0:12.588',-1.295
'0:12.590',-1.390
'0:12.592',-1.365
'0:12.594',-1.330
'0:12.596',-1.310
'0:12.598',-1.310
'0:12.600',-1.340
'0:12.602',-1.295
'0:12.604',-1.325
'0:12.606',-1.305
'0:12.608',-1.315
'0:12.610',-1.300
'0:12.612',-1.370
'0:12.614',-1.370
'0:12.616',-1.395
'0:12.618',-1.360
'0:12.620',-1.375
'0:12.622',-1.340
'0:12.624',-1.300
'0:12.626',-1.320
'0:12.628',-1.330
'0:12.630',-1.360
'0:12.632',-1.355
'0:12.634',-1.370
'0:12.636',-1.345
'0:12.638',-1.265
'0:12.640',-1.315
'0:12.642',-1.375
'0:12.644',-1.355
'0:12.646',-1.355
'0:12.648',-1.300
'0:12.650',-1.310
'0:12.652',-1.305
'0:12.654',-1.345
'0:12.656',-1.330
'0:12.658',-1.275
'0:12.660',-1.340
'0:12.662',-1.385
'0:12.664',-1.350
'0:12.666',-1.270
'0:12.668',-1.240
'0:12.670',-1.300
'0:12.672',-1.325
'0:12.674',-1.315
'0:12.676',-1.365
'0:12.678',-1.345
'0:12.680',-1.360
'0:12.682',-1.350
'0:12.684',-1.320
'0:12.686',-1.325
'0:12.688',-1.300
'0:12.690',-1.315
'0:12.692',-1.285
'0:12.694',-1.350
'0:12.696',-1.335
'0:12.698',-1.345
'0:12.700',-1.365
'0:12.702',-1.340
'0:12.704',-1.345
'0:12.706',-1.360
'0:12.708',-1.365
'0:12.710',-1.355
'0:12.712',-1.360
'0:12.714',-1.325
'0:12.716',-1.300
'0:12.718',-1.360
'0:12.720',-1.385
'0:12.722',-1.375
'0:12.724',-1.305
'0:12.726',-1.325
'0:12.728',-1.305
'0:12.730',-1.350
'0:12.732',-1.330
'0:12.734',-1.355
'0:12.736',-1.325
'0:12.738',-1.290
'0:12.740',-1.370
'0:12.742',-1.285
'0:12.744',-1.255
'0:12.746',-1.360
'0:12.748',-1.290
'0:12.750',-1.340
'0:12.752',-1.355
'0:12.754',-1.285
'0:12.756',-1.310
'0:12.758',-1.370
'0:12.760',-1.330
'0:12.762',-1.415
'0:12.764',-1.395
'0:12.766',-1.320
'0:12.768',-1.260
'0:12.770',-1.275
'0:12.772',-1.305
'0:12.774',-1.280
'0:12.776',-1.360
'0:12.778',-1.365
'0:12.780',-1.315
'0:12.782',-1.250
'0:12.784',-1.310
'0:12.786',-1.340
'0:12.788',-1.315
'0:12.790',-1.310
'0:12.792',-1.380
'0:12.794',-1.285
'0:12.796',-1.280
'0:12.798',-1.255
'0:12.800',-1.325
'0:12.802',-1.285
'0:12.804',-1.305
'0:12.806',-1.345
'0:12.808',-1.310
'0:12.810',-1.280
'0:12.812',-1.290
'0:12.814',-1.295
'0:12.816',-1.335
'0:12.818',-1.320
'0:12.820',-1.265
'0:12.822',-1.245
'0:12.824',-1.330
'0:12.826',-1.350
'0:12.828',-1.390
'0:12.830',-1.305
'0:12.832',-1.270
'0:12.834',-1.380
'0:12.836',-1.265
'0:12.838',-1.295
'0:12.840',-1.245
'0:12.842',-1.270
'0:12.844',-1.275
'0:12.846',-1.265
'0:12.848',-1.295
'0:12.850',-1.310
'0:12.852',-1.400
'0:12.854',-1.300
'0:12.856',-1.350
'0:12.858',-1.340
'0:12.860',-1.235
'0:12.862',-1.195
'0:12.864',-1.260
'0:12.866',-1.255
'0:12.868',-1.180
'0:12.870',-1.175
'0:12.872',-1.230
'0:12.874',-1.220
'0:12.876',-1.220
'0:12.878',-1.255
'0:12.880',-1.250
'0:12.882',-1.235
'0:12.884',-1.265
'0:12.886',-1.270
'0:12.888',-1.260
'0:12.890',-1.155
'0:12.892',-1.225
'0:12.894',-1.270
'0:12.896',-1.185
'0:12.898',-1.130
'0:12.900',-1.155
'0:12.902',-1.125
'0:12.904',-1.105
'0:12.906',-1.110
'0:12.908',-1.160
'0:12.910',-1.190
'0:12.912',-1.150
'0:12.914',-1.245
'0:12.916',-1.265
'0:12.918',-1.200
'0:12.920',-1.235
'0:12.922',-1.190
'0:12.924',-1.160
'0:12.926',-1.215
'0:12.928',-1.265
'0:12.930',-1.225
'0:12.932',-1.245
'0:12.934',-1.210
'0:12.936',-1.250
'0:12.938',-1.245
'0:12.940',-1.285
'0:12.942',-1.315
'0:12.944',-1.270
'0:12.946',-1.230
'0:12.948',-1.280
'0:12.950',-1.220
'0:12.952',-1.220
'0:12.954',-1.265
'0:12.956',-1.320
'0:12.958',-1.250
'0:12.960',-1.225
'0:12.962',-1.275
'0:12.964',-1.260
'0:12.966',-1.240
'0:12.968',-1.215
'0:12.970',-1.220
'0:12.972',-1.240
'0:12.974',-1.295
'0:12.976',-1.230
'0:12.978',-1.225
'0:12.980',-1.240
'0:12.982',-1.265
'0:12.984',-1.270
'0:12.986',-1.275
'0:12.988',-1.300
'0:12.990',-1.335
'0:12.992',-1.210
'0:12.994',-1.180
'0:12.996',-1.140
'0:12.998',-1.095
'0:13.000',-0.965
'0:13.002',-0.965
'0:13.004',-0.865
'0:13.006',-0.860
'0:13.008',-0.935
'0:13.010',-0.985
'0:13.012',-1.160
'0:13.014',-1.040
'0:13.016',-0.935
'0:13.018',-1.025
'0:13.020',-1.100
'0:13.022',-1.285
'0:13.024',-1.300
'0:13.026',-1.370
'0:13.028',-1.350
'0:13.030',-1.415
'0:13.032',-1.455
'0:13.034',-1.475
'0:13.036',-1.490
'0:13.038',-1.480
'0:13.040',-1.470
'0:13.042',-1.440
'0:13.044',-1.425
'0:13.046',-1.405
'0:13.048',-1.410
'0:13.050',-1.325
'0:13.052',-1.310
'0:13.054',-1.290
'0:13.056',-1.275
'0:13.058',-1.225
'0:13.060',-1.325
'0:13.062',-1.235
'0:13.064',-1.265
'0:13.066',-1.240
'0:13.068',-1.235
'0:13.070',-1.240
'0:13.072',-1.265
'0:13.074',-1.260
'0:13.076',-1.200
'0:13.078',-1.250
'0:13.080',-1.210
'0:13.082',-1.185
'0:13.084',-1.200
'0:13.086',-1.230
'0:13.088',-1.235
'0:13.090',-1.215
'0:13.092',-1.260
'0:13.094',-1.210
'0:13.096',-1.200
'0:13.098',-1.165
'0:13.100',-1.235
'0:13.102',-1.205
'0:13.104',-1.160
'0:13.106',-1.190
'0:13.108',-1.195
'0:13.110',-1.200
'0:13.112',-1.165
'0:13.114',-1.165
'0:13.116',-1.155
'0:13.118',-1.150
'0:13.120',-1.185
'0:13.122',-1.185
'0:13.124',-1.155
'0:13.126',-1.195
'0:13.128',-1.085
'0:13.130',-1.165
'0:13.132',-1.085
'0:13.134',-1.120
'0:13.136',-1.170
'0:13.138',-1.175
'0:13.140',-1.115
'0:13.142',-1.100
'0:13.144',-1.140
'0:13.146',-1.105
'0:13.148',-1.125
'0:13.150',-1.105
'0:13.152',-1.115
'0:13.154',-1.050
'0:13.156',-1.060
'0:13.158',-1.045
'0:13.160',-1.075
'0:13.162',-1.095
'0:13.164',-1.050
'0:13.166',-1.035
'0:13.168',-1.025
'0:13.170',-1.035
'0:13.172',-1.030
'0:13.174',-0.975
'0:13.176',-1.000
'0:13.178',-1.025
'0:13.180',-0.960
'0:13.182',-0.950
'0:13.184',-0.995
'0:13.186',-0.995
'0:13.188',-0.800
'0:13.190',-0.880
'0:13.192',-0.920
'0:13.194',-0.860
'0:13.196',-0.870
'0:13.198',-0.900
'0:13.200',-0.890
'0:13.202',-0.865
'0:13.204',-0.870
'0:13.206',-0.860
'0:13.208',-0.815
'0:13.210',-0.825
'0:13.212',-0.885
'0:13.214',-0.895
'0:13.216',-0.865
'0:13.218',-0.835
'0:13.220',-0.870
'0:13.222',-0.855
'0:13.224',-0.870
'0:13.226',-0.845
'0:13.228',-0.900
'0:13.230',-0.895
'0:13.232',-0.925
'0:13.234',-0.850
'0:13.236',-0.880
'0:13.238',-0.910
'0:13.240',-0.935
'0:13.242',-0.940
'0:13.244',-1.060
'0:13.246',-0.935
'0:13.248',-0.975
'0:13.250',-0.985
'0:13.252',-0.975
'0:13.254',-1.020
'0:13.256',-1.025
'0:13.258',-1.015
'0:13.260',-0.960
'0:13.262',-0.945
'0:13.264',-1.045
'0:13.266',-1.010
'0:13.268',-1.085
'0:13.270',-1.035
'0:13.272',-1.030
'0:13.274',-1.140
'0:13.276',-1.015
'0:13.278',-1.060
'0:13.280',-1.120
'0:13.282',-1.145
'0:13.284',-1.085
'0:13.286',-1.035
'0:13.288',-1.040
'0:13.290',-1.135
'0:13.292',-1.020
'0:13.294',-1.110
'0:13.296',-1.110
'0:13.298',-1.080
'0:13.300',-1.085
'0:13.302',-1.105
'0:13.304',-1.045
'0:13.306',-1.130
'0:13.308',-1.050
'0:13.310',-1.070
'0:13.312',-1.095
'0:13.314',-1.085
'0:13.316',-1.095
'0:13.318',-1.055
'0:13.320',-1.075
'0:13.322',-1.085
'0:13.324',-1.070
'0:13.326',-1.090
